0.03706856 0.01304347 0.01727657 0.00267347 0.00081578 0.00150514 0.00910858 0.00395488 0.02892024 0.00216502 0.00387055 0.01594874 0.00337665 0.00180569 0.00157861 0.00129252 
0.03704836 0.01289382 0.01719510 0.00266379 0.00081066 0.00150855 0.00921375 0.00402408 0.02956345 0.00216614 0.00387624 0.01652927 0.00338001 0.00181950 0.00156898 0.00129301 
0.03701590 0.01274860 0.01708909 0.00265310 0.00080661 0.00151305 0.00932190 0.00409371 0.03019802 0.00216988 0.00388392 0.01710305 0.00338213 0.00183404 0.00156167 0.00129363 
0.03697157 0.01260787 0.01695891 0.00264144 0.00080366 0.00151864 0.00943296 0.00416364 0.03082260 0.00217620 0.00389361 0.01766842 0.00338288 0.00184942 0.00155678 0.00129437 
0.03691572 0.01247163 0.01680504 0.00262887 0.00080183 0.00152532 0.00954681 0.00423377 0.03143581 0.00218504 0.00390534 0.01822375 0.00338216 0.00186571 0.00155441 0.00129524 
0.03684865 0.01233986 0.01662805 0.00261545 0.00080112 0.00153310 0.00966333 0.00430398 0.03203629 0.00219636 0.00391910 0.01876740 0.00337986 0.00188301 0.00155464 0.00129623 
0.03677059 0.01221249 0.01642858 0.00260125 0.00080154 0.00154197 0.00978236 0.00437415 0.03262272 0.00221006 0.00393488 0.01929780 0.00337589 0.00190139 0.00155753 0.00129734 
0.03668172 0.01208939 0.01620740 0.00258631 0.00080308 0.00155192 0.00990374 0.00444416 0.03319376 0.00222605 0.00395262 0.01981340 0.00337016 0.00192094 0.00156313 0.00129857 
0.03658213 0.01197044 0.01596533 0.00257070 0.00080573 0.00156295 0.01002726 0.00451392 0.03374812 0.00224422 0.00397228 0.02031271 0.00336259 0.00194172 0.00157146 0.00129990 
0.03647188 0.01185545 0.01570329 0.00255446 0.00080947 0.00157504 0.01015270 0.00458331 0.03428454 0.00226447 0.00399376 0.02079429 0.00335312 0.00196378 0.00158254 0.00130134 
0.03635095 0.01174427 0.01542225 0.00253765 0.00081429 0.00158816 0.01027982 0.00465222 0.03480179 0.00228666 0.00401698 0.02125678 0.00334170 0.00198719 0.00159635 0.00130287 
0.03621925 0.01163669 0.01512326 0.00252033 0.00082015 0.00160230 0.01040834 0.00472058 0.03529870 0.00231064 0.00404180 0.02169888 0.00332830 0.00201199 0.00161287 0.00130450 
0.03607665 0.01153252 0.01480742 0.00250255 0.00082702 0.00161743 0.01053798 0.00478828 0.03577414 0.00233628 0.00406811 0.02211940 0.00331290 0.00203821 0.00163207 0.00130620 
0.03592295 0.01143157 0.01447590 0.00248435 0.00083485 0.00163353 0.01066842 0.00485524 0.03622704 0.00236342 0.00409575 0.02251721 0.00329550 0.00206587 0.00165389 0.00130798 
0.03575790 0.01133368 0.01412990 0.00246579 0.00084360 0.00165055 0.01079933 0.00492138 0.03665639 0.00239189 0.00412456 0.02289131 0.00327613 0.00209500 0.00167826 0.00130982 
0.03558119 0.01123868 0.01377066 0.00244692 0.00085321 0.00166848 0.01093037 0.00498664 0.03706125 0.00242154 0.00415436 0.02324077 0.00325483 0.00212561 0.00170510 0.00131171 
0.03539249 0.01114645 0.01339945 0.00242779 0.00086363 0.00168728 0.01106117 0.00505095 0.03744075 0.00245218 0.00418495 0.02356480 0.00323167 0.00215768 0.00173432 0.00131364 
0.03519139 0.01105689 0.01301758 0.00240843 0.00087480 0.00170690 0.01119134 0.00511427 0.03779409 0.00248365 0.00421614 0.02386271 0.00320672 0.00219123 0.00176582 0.00131561 
0.03497749 0.01096995 0.01262635 0.00238891 0.00088665 0.00172731 0.01132049 0.00517654 0.03812058 0.00251576 0.00424771 0.02413395 0.00318011 0.00222621 0.00179948 0.00131760 
0.03475034 0.01088563 0.01222711 0.00236926 0.00089911 0.00174846 0.01144822 0.00523773 0.03841958 0.00254836 0.00427944 0.02437806 0.00315196 0.00226262 0.00183518 0.00131959 
0.03450948 0.01080397 0.01182118 0.00234952 0.00091211 0.00177033 0.01157412 0.00529781 0.03869057 0.00258125 0.00431111 0.02459475 0.00312243 0.00230040 0.00187279 0.00132159 
0.03425443 0.01072508 0.01140990 0.00232974 0.00092556 0.00179285 0.01169775 0.00535677 0.03893310 0.00261428 0.00434248 0.02478383 0.00309171 0.00233953 0.00191217 0.00132357 
0.03398472 0.01064912 0.01099458 0.00230997 0.00093939 0.00181599 0.01181870 0.00541458 0.03914684 0.00264726 0.00437332 0.02494526 0.00305999 0.00237994 0.00195320 0.00132552 
0.03369988 0.01057634 0.01057653 0.00229024 0.00095352 0.00183970 0.01193653 0.00547126 0.03933154 0.00268004 0.00440339 0.02507913 0.00302751 0.00242158 0.00199572 0.00132744 
0.03339945 0.01050704 0.01015704 0.00227059 0.00096787 0.00186393 0.01205082 0.00552679 0.03948706 0.00271245 0.00443244 0.02518567 0.00299453 0.00246440 0.00203959 0.00132931 
0.03308300 0.01044160 0.00973737 0.00225106 0.00098234 0.00188864 0.01216115 0.00558120 0.03961336 0.00274434 0.00446024 0.02526525 0.00296131 0.00250831 0.00208466 0.00133112 
0.03275014 0.01038049 0.00931875 0.00223171 0.00099686 0.00191377 0.01226709 0.00563449 0.03971049 0.00277556 0.00448657 0.02531835 0.00292815 0.00255325 0.00213081 0.00133286 
0.03240052 0.01032424 0.00890238 0.00221255 0.00101134 0.00193928 0.01236824 0.00568669 0.03977864 0.00280597 0.00451118 0.02534562 0.00289536 0.00259913 0.00217788 0.00133451 
0.03203384 0.01027347 0.00848941 0.00219364 0.00102568 0.00196511 0.01246419 0.00573783 0.03981807 0.00283544 0.00453385 0.02534782 0.00286329 0.00264588 0.00222574 0.00133608 
0.03164986 0.01022886 0.00808095 0.00217500 0.00103982 0.00199122 0.01255456 0.00578794 0.03982916 0.00286385 0.00455438 0.02532583 0.00283229 0.00269342 0.00227426 0.00133755 
0.03124842 0.01019119 0.00767807 0.00215668 0.00105365 0.00201756 0.01263898 0.00583706 0.03981238 0.00289108 0.00457255 0.02528066 0.00280272 0.00274166 0.00232332 0.00133890 
0.03082943 0.01016131 0.00728177 0.00213872 0.00106711 0.00204406 0.01271709 0.00588521 0.03976831 0.00291704 0.00458817 0.02521345 0.00277497 0.00279051 0.00237279 0.00134014 
0.03039291 0.01014013 0.00689302 0.00212115 0.00108011 0.00207069 0.01278857 0.00593245 0.03969762 0.00294162 0.00460106 0.02512545 0.00274944 0.00283989 0.00242258 0.00134125 
0.02993897 0.01012863 0.00651272 0.00210401 0.00109256 0.00209739 0.01285312 0.00597881 0.03960109 0.00296474 0.00461104 0.02501799 0.00272651 0.00288972 0.00247258 0.00134222 
0.02946781 0.01012785 0.00614172 0.00208733 0.00110441 0.00212410 0.01291044 0.00602432 0.03947958 0.00298634 0.00461797 0.02489254 0.00270661 0.00293990 0.00252271 0.00134306 
0.02897977 0.01013892 0.00578080 0.00207115 0.00111557 0.00215077 0.01296028 0.00606904 0.03933404 0.00300635 0.00462171 0.02475063 0.00269015 0.00299037 0.00257288 0.00134375 
0.02847530 0.01016297 0.00543070 0.00205551 0.00112598 0.00217736 0.01300242 0.00611298 0.03916550 0.00302472 0.00462213 0.02459389 0.00267755 0.00304105 0.00262303 0.00134429 
0.02795497 0.01020120 0.00509209 0.00204044 0.00113557 0.00220380 0.01303666 0.00615619 0.03897507 0.00304142 0.00461913 0.02442402 0.00266921 0.00309186 0.00267311 0.00134468 
0.02741951 0.01025487 0.00476557 0.00202597 0.00114429 0.00223005 0.01306284 0.00619869 0.03876395 0.00305642 0.00461262 0.02424279 0.00266554 0.00314273 0.00272308 0.00134491 
0.02686976 0.01032521 0.00445170 0.00201215 0.00115208 0.00225605 0.01308082 0.00624050 0.03853337 0.00306969 0.00460255 0.02405202 0.00266695 0.00319360 0.00277289 0.00134499 
0.02630673 0.01041353 0.00415096 0.00199899 0.00115889 0.00228174 0.01309052 0.00628163 0.03828467 0.00308124 0.00458885 0.02385358 0.00267383 0.00324441 0.00282254 0.00134491 
0.02573155 0.01052109 0.00386378 0.00198654 0.00116468 0.00230708 0.01309188 0.00632211 0.03801920 0.00309106 0.00457151 0.02364938 0.00268656 0.00329511 0.00287203 0.00134467 
0.02514552 0.01064921 0.00359054 0.00197483 0.00116940 0.00233201 0.01308486 0.00636191 0.03773839 0.00309916 0.00455052 0.02344135 0.00270548 0.00334567 0.00292135 0.00134428 
0.02455008 0.01079914 0.00333156 0.00196388 0.00117304 0.00235647 0.01306947 0.00640105 0.03744368 0.00310557 0.00452589 0.02323143 0.00273095 0.00339603 0.00297052 0.00134373 
0.02394683 0.01097214 0.00308709 0.00195374 0.00117556 0.00238041 0.01304577 0.00643950 0.03713658 0.00311032 0.00449766 0.02302157 0.00276327 0.00344617 0.00301959 0.00134303 
0.02333752 0.01116943 0.00285736 0.00194442 0.00117695 0.00240378 0.01301384 0.00647723 0.03681859 0.00311343 0.00446587 0.02281372 0.00280273 0.00349607 0.00306857 0.00134219 
0.02272404 0.01139219 0.00264251 0.00193596 0.00117718 0.00242653 0.01297378 0.00651420 0.03649125 0.00311497 0.00443061 0.02260979 0.00284960 0.00354571 0.00311754 0.00134121 
0.02210844 0.01164151 0.00244266 0.00192838 0.00117625 0.00244859 0.01292575 0.00655037 0.03615610 0.00311497 0.00439197 0.02241168 0.00290410 0.00359508 0.00316654 0.00134010 
0.02149290 0.01191847 0.00225787 0.00192171 0.00117416 0.00246992 0.01286993 0.00658568 0.03581467 0.00311349 0.00435005 0.02222124 0.00296642 0.00364418 0.00321564 0.00133886 
0.02087975 0.01222401 0.00208816 0.00191597 0.00117092 0.00249045 0.01280654 0.00662005 0.03546851 0.00311060 0.00430499 0.02204026 0.00303672 0.00369302 0.00326491 0.00133750 
0.02027145 0.01255901 0.00193352 0.00191119 0.00116654 0.00251015 0.01273582 0.00665341 0.03511913 0.00310636 0.00425693 0.02187048 0.00311511 0.00374162 0.00331444 0.00133604 
0.01967059 0.01292425 0.00179387 0.00190738 0.00116104 0.00252895 0.01265805 0.00668566 0.03476802 0.00310084 0.00420604 0.02171357 0.00320166 0.00378998 0.00336431 0.00133448 
0.01907986 0.01332039 0.00166913 0.00190457 0.00115443 0.00254680 0.01257351 0.00671670 0.03441665 0.00309410 0.00415250 0.02157110 0.00329640 0.00383815 0.00341460 0.00133284 
0.01850208 0.01374796 0.00155917 0.00190277 0.00114676 0.00256365 0.01248254 0.00674642 0.03406642 0.00308623 0.00409650 0.02144455 0.00339931 0.00388615 0.00346541 0.00133112 
0.01794017 0.01420738 0.00146381 0.00190199 0.00113805 0.00257944 0.01238549 0.00677468 0.03371873 0.00307730 0.00403824 0.02133532 0.00351033 0.00393401 0.00351682 0.00132934 
0.01739711 0.01469890 0.00138287 0.00190224 0.00112836 0.00259413 0.01228271 0.00680137 0.03337487 0.00306738 0.00397795 0.02124469 0.00362935 0.00398179 0.00356893 0.00132751 
0.01687600 0.01522266 0.00131613 0.00190354 0.00111772 0.00260766 0.01217459 0.00682633 0.03303610 0.00305655 0.00391585 0.02117380 0.00375620 0.00402952 0.00362182 0.00132565 
0.01637997 0.01577860 0.00126334 0.00190589 0.00110620 0.00261999 0.01206153 0.00684942 0.03270360 0.00304488 0.00385218 0.02112369 0.00389067 0.00407727 0.00367556 0.00132376 
0.01591220 0.01636653 0.00122423 0.00190930 0.00109384 0.00263107 0.01194394 0.00687048 0.03237848 0.00303245 0.00378718 0.02109527 0.00403250 0.00412507 0.00373025 0.00132187 
0.01547592 0.01698607 0.00119851 0.00191375 0.00108072 0.00264084 0.01182224 0.00688934 0.03206176 0.00301932 0.00372112 0.02108930 0.00418138 0.00417299 0.00378595 0.00131999 
0.01507438 0.01763670 0.00118588 0.00191926 0.00106690 0.00264927 0.01169685 0.00690584 0.03175436 0.00300557 0.00365423 0.02110640 0.00433696 0.00422108 0.00384272 0.00131813 
0.01471082 0.01831769 0.00118601 0.00192582 0.00105245 0.00265630 0.01156820 0.00691981 0.03145713 0.00299126 0.00358680 0.02114704 0.00449882 0.00426940 0.00390061 0.00131630 
0.01438848 0.01902815 0.00119855 0.00193341 0.00103744 0.00266191 0.01143672 0.00693107 0.03117079 0.00297644 0.00351907 0.02121155 0.00466651 0.00431799 0.00395968 0.00131453 
0.01411055 0.01976700 0.00122315 0.00194202 0.00102195 0.00266604 0.01130285 0.00693944 0.03089599 0.00296119 0.00345131 0.02130011 0.00483953 0.00436693 0.00401994 0.00131283 
0.01388019 0.02053300 0.00125944 0.00195164 0.00100607 0.00266865 0.01116699 0.00694476 0.03063325 0.00294555 0.00338378 0.02141273 0.00501733 0.00441625 0.00408142 0.00131120 
0.01370050 0.02132470 0.00130704 0.00196224 0.00098988 0.00266972 0.01102958 0.00694684 0.03038299 0.00292956 0.00331674 0.02154928 0.00519934 0.00446601 0.00414412 0.00130968 
0.01357446 0.02214051 0.00136555 0.00197381 0.00097345 0.00266921 0.01089100 0.00694550 0.03014551 0.00291328 0.00325045 0.02170947 0.00538493 0.00451624 0.00420804 0.00130826 
0.01350499 0.02297864 0.00143457 0.00198630 0.00095689 0.00266709 0.01075166 0.00694060 0.02992101 0.00289674 0.00318514 0.02189285 0.00557343 0.00456699 0.00427314 0.00130697 
0.01349487 0.02383714 0.00151368 0.00199971 0.00094027 0.00266333 0.01061194 0.00693195 0.02970957 0.00287998 0.00312106 0.02209883 0.00576415 0.00461830 0.00433939 0.00130582 
0.01354672 0.02471391 0.00160246 0.00201397 0.00092369 0.00265790 0.01047219 0.00691941 0.02951115 0.00286303 0.00305845 0.02232666 0.00595638 0.00467019 0.00440672 0.00130481 
0.01366303 0.02560667 0.00170049 0.00202907 0.00090722 0.00265079 0.01033276 0.00690283 0.02932560 0.00284590 0.00299753 0.02257545 0.00614936 0.00472268 0.00447507 0.00130397 
0.01384611 0.02651301 0.00180732 0.00204495 0.00089097 0.00264198 0.01019396 0.00688207 0.02915267 0.00282862 0.00293851 0.02284417 0.00634232 0.00477578 0.00454433 0.00130330 
0.01409806 0.02743039 0.00192251 0.00206158 0.00087501 0.00263145 0.01005610 0.00685700 0.02899198 0.00281121 0.00288159 0.02313165 0.00653448 0.00482949 0.00461441 0.00130282 
0.01442077 0.02835613 0.00204560 0.00207889 0.00085944 0.00261920 0.00991945 0.00682751 0.02884307 0.00279366 0.00282695 0.02343660 0.00672502 0.00488382 0.00468517 0.00130252 
0.01481591 0.02928742 0.00217614 0.00209684 0.00084434 0.00260522 0.00978426 0.00679351 0.02870536 0.00277600 0.00277478 0.02375760 0.00691314 0.00493875 0.00475647 0.00130243 
0.01528491 0.03022137 0.00231365 0.00211538 0.00082978 0.00258950 0.00965075 0.00675490 0.02857817 0.00275821 0.00272522 0.02409310 0.00709802 0.00499425 0.00482816 0.00130255 
0.01582893 0.03115498 0.00245766 0.00213445 0.00081585 0.00257205 0.00951912 0.00671162 0.02846073 0.00274030 0.00267842 0.02444147 0.00727885 0.00505030 0.00490005 0.00130288 
0.01644885 0.03208520 0.00260770 0.00215397 0.00080263 0.00255288 0.00938953 0.00666362 0.02835221 0.00272227 0.00263451 0.02480097 0.00745480 0.00510683 0.00497196 0.00130343 
0.01714527 0.03300888 0.00276328 0.00217390 0.00079018 0.00253201 0.00926213 0.00661086 0.02825166 0.00270409 0.00259360 0.02516976 0.00762508 0.00516381 0.00504368 0.00130421 
0.01791849 0.03392286 0.00292391 0.00219417 0.00077858 0.00250944 0.00913703 0.00655332 0.02815809 0.00268577 0.00255577 0.02554593 0.00778889 0.00522116 0.00511499 0.00130521 
0.01876851 0.03482391 0.00308908 0.00221470 0.00076789 0.00248519 0.00901431 0.00649101 0.02807043 0.00266729 0.00252111 0.02592750 0.00794547 0.00527881 0.00518567 0.00130643 
0.01969498 0.03570882 0.00325830 0.00223543 0.00075816 0.00245931 0.00889403 0.00642396 0.02798756 0.00264863 0.00248966 0.02631245 0.00809407 0.00533667 0.00525548 0.00130789 
0.02069725 0.03657436 0.00343107 0.00225630 0.00074947 0.00243181 0.00877622 0.00635221 0.02790832 0.00262978 0.00246147 0.02669866 0.00823397 0.00539464 0.00532416 0.00130957 
0.02177433 0.03741733 0.00360686 0.00227722 0.00074185 0.00240274 0.00866088 0.00627582 0.02783149 0.00261072 0.00243655 0.02708404 0.00836447 0.00545261 0.00539145 0.00131147 
0.02292488 0.03823455 0.00378517 0.00229813 0.00073535 0.00237213 0.00854799 0.00619489 0.02775585 0.00259143 0.00241491 0.02746642 0.00848494 0.00551047 0.00545709 0.00131359 
0.02414722 0.03902291 0.00396547 0.00231896 0.00073001 0.00234003 0.00843752 0.00610951 0.02768014 0.00257191 0.00239652 0.02784364 0.00859476 0.00556807 0.00552081 0.00131592 
0.02543934 0.03977936 0.00414724 0.00233964 0.00072587 0.00230650 0.00832938 0.00601983 0.02760313 0.00255213 0.00238137 0.02821355 0.00869338 0.00562529 0.00558234 0.00131846 
0.02679885 0.04050094 0.00432996 0.00236010 0.00072295 0.00227159 0.00822350 0.00592599 0.02752355 0.00253208 0.00236939 0.02857398 0.00878026 0.00568198 0.00564141 0.00132120 
0.02822306 0.04118480 0.00451311 0.00238026 0.00072126 0.00223536 0.00811977 0.00582817 0.02744018 0.00251174 0.00236052 0.02892279 0.00885496 0.00573798 0.00569773 0.00132412 
0.02970891 0.04182820 0.00469616 0.00240007 0.00072084 0.00219788 0.00801806 0.00572655 0.02735180 0.00249111 0.00235467 0.02925789 0.00891706 0.00579313 0.00575103 0.00132723 
0.03125303 0.04242855 0.00487860 0.00241946 0.00072168 0.00215922 0.00791824 0.00562135 0.02725725 0.00247019 0.00235175 0.02957722 0.00896622 0.00584726 0.00580106 0.00133049 
0.03285170 0.04298339 0.00505988 0.00243836 0.00072379 0.00211945 0.00782016 0.00551280 0.02715539 0.00244896 0.00235163 0.02987876 0.00900215 0.00590019 0.00584754 0.00133391 
0.03450092 0.04349045 0.00523952 0.00245672 0.00072716 0.00207865 0.00772365 0.00540115 0.02704518 0.00242742 0.00235421 0.03016058 0.00902461 0.00595174 0.00589023 0.00133746 
0.03619636 0.04394764 0.00541698 0.00247449 0.00073179 0.00203692 0.00762855 0.00528667 0.02692560 0.00240557 0.00235933 0.03042082 0.00903346 0.00600172 0.00592888 0.00134114 
0.03793340 0.04435305 0.00559177 0.00249160 0.00073766 0.00199432 0.00753468 0.00516964 0.02679574 0.00238343 0.00236684 0.03065768 0.00902859 0.00604995 0.00596325 0.00134491 
0.03970715 0.04470499 0.00576339 0.00250802 0.00074474 0.00195097 0.00744186 0.00505037 0.02665477 0.00236100 0.00237658 0.03086948 0.00900998 0.00609624 0.00599313 0.00134878 
0.04151248 0.04500198 0.00593135 0.00252370 0.00075301 0.00190695 0.00734991 0.00492917 0.02650195 0.00233830 0.00238838 0.03105463 0.00897767 0.00614038 0.00601832 0.00135271 
0.04334400 0.04524278 0.00609518 0.00253859 0.00076243 0.00186236 0.00725865 0.00480637 0.02633666 0.00231534 0.00240206 0.03121167 0.00893176 0.00618220 0.00603862 0.00135669 
0.04519610 0.04542639 0.00625442 0.00255268 0.00077297 0.00181730 0.00716792 0.00468230 0.02615837 0.00229215 0.00241743 0.03133923 0.00887243 0.00622149 0.00605387 0.00136070 
0.04706298 0.04555205 0.00640861 0.00256593 0.00078458 0.00177187 0.00707753 0.00455732 0.02596668 0.00226875 0.00243429 0.03143609 0.00879992 0.00625807 0.00606391 0.00136472 
0.04893868 0.04561926 0.00655734 0.00257832 0.00079721 0.00172619 0.00698734 0.00443179 0.02576134 0.00224519 0.00245245 0.03150115 0.00871454 0.00629176 0.00606863 0.00136872 
0.05081708 0.04562778 0.00670019 0.00258983 0.00081080 0.00168036 0.00689719 0.00430608 0.02554218 0.00222148 0.00247171 0.03153345 0.00861667 0.00632236 0.00606790 0.00137269 
0.05269193 0.04557763 0.00683677 0.00260045 0.00082530 0.00163450 0.00680694 0.00418055 0.02530921 0.00219768 0.00249185 0.03153219 0.00850673 0.00634970 0.00606165 0.00137661 
0.05455689 0.04546911 0.00696671 0.00261018 0.00084064 0.00158870 0.00671647 0.00405559 0.02506256 0.00217382 0.00251269 0.03149669 0.00838523 0.00637362 0.00604982 0.00138045 
0.05640558 0.04530278 0.00708967 0.00261902 0.00085676 0.00154310 0.00662569 0.00393157 0.02480251 0.00214997 0.00253400 0.03142646 0.00825271 0.00639396 0.00603238 0.00138419 
0.05823153 0.04507948 0.00720534 0.00262697 0.00087359 0.00149780 0.00653449 0.00380887 0.02452947 0.00212616 0.00255559 0.03132112 0.00810980 0.00641055 0.00600930 0.00138781 
0.06002830 0.04480031 0.00731342 0.00263406 0.00089105 0.00145291 0.00644281 0.00368788 0.02424401 0.00210246 0.00257726 0.03118050 0.00795714 0.00642326 0.00598062 0.00139129 
0.06178947 0.04446665 0.00741365 0.00264030 0.00090908 0.00140856 0.00635061 0.00356896 0.02394683 0.00207892 0.00259881 0.03100454 0.00779544 0.00643196 0.00594638 0.00139460 
0.06350865 0.04408014 0.00750580 0.00264572 0.00092759 0.00136486 0.00625786 0.00345250 0.02363877 0.00205560 0.00262005 0.03079338 0.00762547 0.00643653 0.00590663 0.00139774 
0.06517955 0.04364268 0.00758968 0.00265035 0.00094650 0.00132191 0.00616456 0.00333885 0.02332083 0.00203258 0.00264079 0.03054731 0.00744802 0.00643686 0.00586149 0.00140067 
0.06679599 0.04315641 0.00766511 0.00265422 0.00096574 0.00127984 0.00607073 0.00322838 0.02299412 0.00200991 0.00266085 0.03026678 0.00726390 0.00643287 0.00581107 0.00140339 
0.06835193 0.04262373 0.00773198 0.00265738 0.00098523 0.00123875 0.00597641 0.00312143 0.02265989 0.00198766 0.00268007 0.02995240 0.00707400 0.00642448 0.00575551 0.00140586 
0.06984150 0.04204728 0.00779018 0.00265988 0.00100488 0.00119876 0.00588169 0.00301834 0.02231951 0.00196591 0.00269829 0.02960493 0.00687918 0.00641163 0.00569501 0.00140809 
0.07125903 0.04142992 0.00783965 0.00266176 0.00102462 0.00115997 0.00578665 0.00291945 0.02197447 0.00194471 0.00271535 0.02922532 0.00668037 0.00639428 0.00562974 0.00141004 
0.07259908 0.04077473 0.00788036 0.00266308 0.00104437 0.00112249 0.00569142 0.00282506 0.02162638 0.00192415 0.00273111 0.02881464 0.00647849 0.00637240 0.00555994 0.00141171 
0.07385649 0.04008499 0.00791235 0.00266390 0.00106404 0.00108642 0.00559615 0.00273546 0.02127693 0.00190428 0.00274545 0.02837413 0.00627448 0.00634599 0.00548586 0.00141308 
0.07502634 0.03936416 0.00793564 0.00266428 0.00108357 0.00105185 0.00550100 0.00265095 0.02092791 0.00188519 0.00275825 0.02790518 0.00606928 0.00631507 0.00540775 0.00141414 
0.07610405 0.03861590 0.00795033 0.00266428 0.00110287 0.00101889 0.00540617 0.00257178 0.02058119 0.00186693 0.00276940 0.02740930 0.00586383 0.00627966 0.00532591 0.00141488 
0.07708537 0.03784400 0.00795654 0.00266396 0.00112188 0.00098763 0.00531188 0.00249819 0.02023870 0.00184957 0.00277882 0.02688816 0.00565908 0.00623982 0.00524065 0.00141530 
0.07796640 0.03705243 0.00795443 0.00266340 0.00114052 0.00095815 0.00521836 0.00243042 0.01990244 0.00183318 0.00278643 0.02634356 0.00545595 0.00619562 0.00515229 0.00141539 
0.07874361 0.03624526 0.00794419 0.00266266 0.00115874 0.00093053 0.00512587 0.00236866 0.01957444 0.00181781 0.00279217 0.02577742 0.00525537 0.00614715 0.00506117 0.00141513 
0.07941387 0.03542668 0.00792606 0.00266181 0.00117646 0.00090486 0.00503469 0.00231309 0.01925675 0.00180353 0.00279599 0.02519177 0.00505824 0.00609453 0.00496766 0.00141454 
0.07997446 0.03460097 0.00790030 0.00266091 0.00119362 0.00088120 0.00494512 0.00226388 0.01895148 0.00179039 0.00279785 0.02458878 0.00486542 0.00603788 0.00487212 0.00141360 
0.08042308 0.03377249 0.00786720 0.00266003 0.00121018 0.00085962 0.00485746 0.00222115 0.01866068 0.00177844 0.00279774 0.02397069 0.00467777 0.00597737 0.00477494 0.00141233 
0.08075789 0.03294565 0.00782709 0.00265922 0.00122607 0.00084017 0.00477204 0.00218502 0.01838644 0.00176773 0.00279564 0.02333987 0.00449608 0.00591315 0.00467650 0.00141071 
0.08097746 0.03212490 0.00778031 0.00265855 0.00124126 0.00082293 0.00468920 0.00215559 0.01813080 0.00175831 0.00279157 0.02269876 0.00432115 0.00584543 0.00457721 0.00140876 
0.08108086 0.03131470 0.00772727 0.00265808 0.00125569 0.00080792 0.00460927 0.00213290 0.01789575 0.00175020 0.00278554 0.02204987 0.00415369 0.00577441 0.00447746 0.00140648 
0.08106757 0.03051953 0.00766836 0.00265785 0.00126934 0.00079520 0.00453261 0.00211700 0.01768324 0.00174345 0.00277759 0.02139580 0.00399439 0.00570032 0.00437767 0.00140389 
0.08093760 0.02974381 0.00760401 0.00265792 0.00128216 0.00078479 0.00445958 0.00210790 0.01749515 0.00173807 0.00276777 0.02073921 0.00384389 0.00562340 0.00427825 0.00140098 
0.08069136 0.02899194 0.00753468 0.00265831 0.00129414 0.00077673 0.00439053 0.00210560 0.01733327 0.00173410 0.00275615 0.02008281 0.00370277 0.00554392 0.00417960 0.00139778 
0.08032979 0.02826828 0.00746084 0.00265908 0.00130523 0.00077103 0.00432583 0.00211005 0.01719928 0.00173155 0.00274278 0.01942934 0.00357157 0.00546215 0.00408212 0.00139430 
0.07985423 0.02757707 0.00738298 0.00266025 0.00131543 0.00076770 0.00426583 0.00212119 0.01709478 0.00173044 0.00272775 0.01878159 0.00345075 0.00537838 0.00398623 0.00139055 
0.07926653 0.02692247 0.00730160 0.00266185 0.00132473 0.00076675 0.00421089 0.00213894 0.01702123 0.00173076 0.00271116 0.01814236 0.00334072 0.00529292 0.00389230 0.00138655 
0.07856896 0.02630854 0.00721720 0.00266389 0.00133311 0.00076817 0.00416135 0.00216320 0.01697994 0.00173253 0.00269311 0.01751447 0.00324183 0.00520608 0.00380074 0.00138231 
0.07776424 0.02573919 0.00713031 0.00266637 0.00134056 0.00077195 0.00411755 0.00219383 0.01697211 0.00173573 0.00267372 0.01690075 0.00315437 0.00511819 0.00371191 0.00137787 
0.07685550 0.02521817 0.00704146 0.00266932 0.00134709 0.00077808 0.00407981 0.00223068 0.01699875 0.00174035 0.00265310 0.01630400 0.00307855 0.00502959 0.00362617 0.00137323 
0.07584629 0.02474908 0.00695117 0.00267270 0.00135271 0.00078652 0.00404844 0.00227357 0.01706072 0.00174638 0.00263139 0.01572702 0.00301453 0.00494061 0.00354389 0.00136843 
0.07474056 0.02433532 0.00685997 0.00267652 0.00135741 0.00079723 0.00402374 0.00232230 0.01715873 0.00175380 0.00260871 0.01517257 0.00296240 0.00485160 0.00346538 0.00136349 
0.07354264 0.02398012 0.00676838 0.00268075 0.00136122 0.00081019 0.00400598 0.00237667 0.01729326 0.00176258 0.00258521 0.01464338 0.00292218 0.00476292 0.00339098 0.00135842 
0.07225720 0.02368646 0.00667693 0.00268536 0.00136414 0.00082533 0.00399541 0.00243644 0.01746465 0.00177269 0.00256104 0.01414214 0.00289383 0.00467492 0.00332098 0.00135327 
0.07088925 0.02345711 0.00658613 0.00269031 0.00136620 0.00084260 0.00399227 0.00250136 0.01767304 0.00178409 0.00253634 0.01367146 0.00287725 0.00458796 0.00325565 0.00134804 
0.06944412 0.02329461 0.00649647 0.00269557 0.00136742 0.00086193 0.00399676 0.00257115 0.01791835 0.00179674 0.00251126 0.01323389 0.00287226 0.00450239 0.00319527 0.00134277 
0.06792742 0.02320124 0.00640843 0.00270106 0.00136783 0.00088325 0.00400907 0.00264553 0.01820034 0.00181060 0.00248597 0.01283191 0.00287864 0.00441857 0.00314006 0.00133749 
0.06634503 0.02317902 0.00632250 0.00270675 0.00136745 0.00090647 0.00402935 0.00272421 0.01851856 0.00182562 0.00246060 0.01246790 0.00289609 0.00433685 0.00309025 0.00133222 
0.06470304 0.02322970 0.00623911 0.00271255 0.00136632 0.00093151 0.00405772 0.00280688 0.01887235 0.00184174 0.00243532 0.01214416 0.00292427 0.00425757 0.00304603 0.00132699 
0.06300778 0.02335474 0.00615870 0.00271839 0.00136447 0.00095828 0.00409428 0.00289320 0.01926088 0.00185892 0.00241028 0.01186288 0.00296278 0.00418105 0.00300757 0.00132182 
0.06126573 0.02355533 0.00608168 0.00272420 0.00136192 0.00098668 0.00413910 0.00298285 0.01968312 0.00187708 0.00238564 0.01162612 0.00301116 0.00410764 0.00297502 0.00131675 
0.05948353 0.02383236 0.00600841 0.00272989 0.00135872 0.00101659 0.00419221 0.00307548 0.02013785 0.00189618 0.00236153 0.01143584 0.00306891 0.00403764 0.00294850 0.00131178 
0.05766795 0.02418643 0.00593927 0.00273538 0.00135491 0.00104791 0.00425360 0.00317075 0.02062367 0.00191614 0.00233811 0.01129387 0.00313548 0.00397135 0.00292811 0.00130697 
0.05582584 0.02461781 0.00587456 0.00274056 0.00135052 0.00108052 0.00432325 0.00326830 0.02113900 0.00193691 0.00231551 0.01120189 0.00321029 0.00390907 0.00291391 0.00130231 
0.05396411 0.02512649 0.00581459 0.00274534 0.00134559 0.00111430 0.00440109 0.00336777 0.02168212 0.00195841 0.00229387 0.01116145 0.00329269 0.00385107 0.00290598 0.00129784 
0.05208969 0.02571215 0.00575963 0.00274962 0.00134015 0.00114912 0.00448703 0.00346879 0.02225111 0.00198058 0.00227331 0.01117397 0.00338205 0.00379759 0.00290433 0.00129358 
0.05020954 0.02637416 0.00570989 0.00275330 0.00133425 0.00118485 0.00458092 0.00357100 0.02284394 0.00200336 0.00225397 0.01124067 0.00347766 0.00374889 0.00290896 0.00128955 
0.04833055 0.02711158 0.00566558 0.00275628 0.00132792 0.00122136 0.00468261 0.00367405 0.02345843 0.00202666 0.00223596 0.01136267 0.00357880 0.00370518 0.00291987 0.00128577 
0.04645960 0.02792317 0.00562686 0.00275845 0.00132120 0.00125852 0.00479190 0.00377755 0.02409226 0.00205043 0.00221938 0.01154088 0.00368476 0.00366665 0.00293702 0.00128224 
0.04460345 0.02880738 0.00559386 0.00275971 0.00131412 0.00129618 0.00490857 0.00388115 0.02474303 0.00207459 0.00220434 0.01177607 0.00379477 0.00363348 0.00296034 0.00127900 
0.04276876 0.02976236 0.00556667 0.00275996 0.00130672 0.00133421 0.00503236 0.00398449 0.02540820 0.00209908 0.00219092 0.01206884 0.00390807 0.00360584 0.00298975 0.00127604 
0.04096204 0.03078599 0.00554535 0.00275910 0.00129903 0.00137247 0.00516299 0.00408722 0.02608518 0.00212384 0.00217920 0.01241961 0.00402390 0.00358384 0.00302517 0.00127339 
0.03918965 0.03187583 0.00552992 0.00275702 0.00129108 0.00141080 0.00530014 0.00418900 0.02677130 0.00214878 0.00216927 0.01282864 0.00414148 0.00356761 0.00306648 0.00127105 
0.03745775 0.03302919 0.00552037 0.00275365 0.00128290 0.00144909 0.00544348 0.00428947 0.02746381 0.00217386 0.00216118 0.01329601 0.00426005 0.00355723 0.00311355 0.00126902 
0.03577229 0.03424309 0.00551666 0.00274889 0.00127452 0.00148717 0.00559264 0.00438832 0.02815995 0.00219900 0.00215498 0.01382164 0.00437886 0.00355276 0.00316624 0.00126731 
0.03413898 0.03551431 0.00551870 0.00274266 0.00126597 0.00152492 0.00574724 0.00448521 0.02885692 0.00222415 0.00215073 0.01440525 0.00449715 0.00355424 0.00322439 0.00126593 
0.03256327 0.03683934 0.00552638 0.00273487 0.00125726 0.00156220 0.00590687 0.00457985 0.02955189 0.00224924 0.00214845 0.01504642 0.00461419 0.00356169 0.00328784 0.00126487 
0.03105035 0.03821448 0.00553957 0.00272547 0.00124841 0.00159888 0.00607111 0.00467193 0.03024208 0.00227422 0.00214817 0.01574454 0.00472928 0.00357510 0.00335640 0.00126412 
0.02960509 0.03963576 0.00555808 0.00271438 0.00123945 0.00163481 0.00623951 0.00476117 0.03092467 0.00229904 0.00214989 0.01649884 0.00484173 0.00359443 0.00342990 0.00126369 
0.02823207 0.04109904 0.00558172 0.00270156 0.00123040 0.00166988 0.00641163 0.00484729 0.03159692 0.00232364 0.00215364 0.01730838 0.00495089 0.00361963 0.00350814 0.00126357 
0.02693554 0.04259994 0.00561025 0.00268696 0.00122125 0.00170396 0.00658700 0.00493004 0.03225611 0.00234797 0.00215940 0.01817208 0.00505614 0.00365063 0.00359092 0.00126374 
0.02571938 0.04413393 0.00564343 0.00267054 0.00121204 0.00173694 0.00676513 0.00500917 0.03289960 0.00237198 0.00216715 0.01908868 0.00515688 0.00368733 0.00367804 0.00126420 
0.02458717 0.04569629 0.00568097 0.00265227 0.00120276 0.00176870 0.00694556 0.00508446 0.03352481 0.00239563 0.00217688 0.02005678 0.00525258 0.00372960 0.00376930 0.00126493 
0.02354208 0.04728217 0.00572257 0.00263214 0.00119343 0.00179913 0.00712778 0.00515570 0.03412926 0.00241887 0.00218855 0.02107484 0.00534272 0.00377731 0.00386449 0.00126592 
0.02258694 0.04888655 0.00576791 0.00261014 0.00118404 0.00182813 0.00731130 0.00522269 0.03471055 0.00244167 0.00220212 0.02214117 0.00542686 0.00383030 0.00396341 0.00126714 
0.02172417 0.05050434 0.00581667 0.00258627 0.00117461 0.00185562 0.00749565 0.00528525 0.03526643 0.00246397 0.00221754 0.02325395 0.00550457 0.00388839 0.00406585 0.00126858 
0.02095584 0.05213033 0.00586848 0.00256056 0.00116513 0.00188149 0.00768032 0.00534323 0.03579473 0.00248575 0.00223477 0.02441125 0.00557550 0.00395140 0.00417161 0.00127022 
0.02028361 0.05375922 0.00592298 0.00253301 0.00115561 0.00190568 0.00786483 0.00539649 0.03629343 0.00250697 0.00225372 0.02561099 0.00563933 0.00401910 0.00428050 0.00127203 
0.01970875 0.05538569 0.00597980 0.00250367 0.00114605 0.00192810 0.00804872 0.00544489 0.03676067 0.00252759 0.00227434 0.02685101 0.00569580 0.00409129 0.00439233 0.00127399 
0.01923214 0.05700433 0.00603856 0.00247259 0.00113643 0.00194871 0.00823150 0.00548834 0.03719470 0.00254759 0.00229655 0.02812903 0.00574472 0.00416771 0.00450690 0.00127607 
0.01885428 0.05860976 0.00609886 0.00243982 0.00112677 0.00196743 0.00841272 0.00552675 0.03759396 0.00256694 0.00232027 0.02944269 0.00578592 0.00424813 0.00462405 0.00127825 
0.01857527 0.06019658 0.00616031 0.00240543 0.00111705 0.00198423 0.00859195 0.00556004 0.03795705 0.00258560 0.00234540 0.03078954 0.00581932 0.00433230 0.00474359 0.00128051 
0.01839483 0.06175941 0.00622253 0.00236950 0.00110728 0.00199907 0.00876875 0.00558816 0.03828271 0.00260355 0.00237186 0.03216705 0.00584487 0.00441993 0.00486537 0.00128280 
0.01831231 0.06329291 0.00628512 0.00233212 0.00109744 0.00201191 0.00894270 0.00561109 0.03856989 0.00262077 0.00239956 0.03357263 0.00586258 0.00451076 0.00498922 0.00128511 
0.01832667 0.06479183 0.00634769 0.00229338 0.00108753 0.00202274 0.00911343 0.00562880 0.03881770 0.00263723 0.00242838 0.03500363 0.00587251 0.00460452 0.00511500 0.00128741 
0.01843653 0.06625097 0.00640987 0.00225339 0.00107755 0.00203154 0.00928054 0.00564129 0.03902541 0.00265291 0.00245823 0.03645735 0.00587480 0.00470091 0.00524257 0.00128967 
0.01864013 0.06766526 0.00647127 0.00221227 0.00106749 0.00203831 0.00944370 0.00564858 0.03919251 0.00266778 0.00248901 0.03793106 0.00586960 0.00479966 0.00537180 0.00129186 
0.01893540 0.06902973 0.00653154 0.00217014 0.00105736 0.00204306 0.00960257 0.00565070 0.03931862 0.00268182 0.00252060 0.03942200 0.00585714 0.00490047 0.00550257 0.00129396 
0.01931992 0.07033959 0.00659033 0.00212713 0.00104714 0.00204580 0.00975683 0.00564770 0.03940358 0.00269502 0.00255289 0.04092739 0.00583767 0.00500306 0.00563477 0.00129593 
0.01979094 0.07159018 0.00664730 0.00208338 0.00103684 0.00204656 0.00990621 0.00563966 0.03944740 0.00270735 0.00258577 0.04244445 0.00581153 0.00510714 0.00576828 0.00129776 
0.02034545 0.07277705 0.00670212 0.00203903 0.00102646 0.00204536 0.01005045 0.00562664 0.03945025 0.00271880 0.00261913 0.04397038 0.00577905 0.00521243 0.00590301 0.00129941 
0.02098013 0.07389592 0.00675451 0.00199422 0.00101599 0.00204224 0.01018930 0.00560874 0.03941248 0.00272934 0.00265285 0.04550242 0.00574063 0.00531865 0.00603887 0.00130087 
0.02169137 0.07494275 0.00680416 0.00194913 0.00100544 0.00203725 0.01032256 0.00558607 0.03933462 0.00273895 0.00268683 0.04703781 0.00569670 0.00542553 0.00617578 0.00130212 
0.02247536 0.07591374 0.00685083 0.00190389 0.00099482 0.00203045 0.01045003 0.00555875 0.03921734 0.00274762 0.00272093 0.04857383 0.00564773 0.00553279 0.00631365 0.00130313 
0.02332801 0.07680532 0.00689426 0.00185867 0.00098413 0.00202189 0.01057155 0.00552693 0.03906149 0.00275533 0.00275506 0.05010780 0.00559421 0.00564018 0.00645241 0.00130388 
0.02424505 0.07761421 0.00693425 0.00181364 0.00097338 0.00201165 0.01068699 0.00549073 0.03886807 0.00276206 0.00278910 0.05163706 0.00553666 0.00574744 0.00659199 0.00130437 
0.02522200 0.07833740 0.00697058 0.00176896 0.00096258 0.00199979 0.01079622 0.00545032 0.03863821 0.00276779 0.00282293 0.05315905 0.00547563 0.00585433 0.00673232 0.00130457 
0.02625421 0.07897216 0.00700311 0.00172479 0.00095174 0.00198639 0.01089915 0.00540588 0.03837319 0.00277251 0.00285644 0.05467124 0.00541169 0.00596061 0.00687334 0.00130448 
0.02733688 0.07951608 0.00703166 0.00168130 0.00094088 0.00197155 0.01099569 0.00535757 0.03807442 0.00277620 0.00288953 0.05617118 0.00534540 0.00606605 0.00701498 0.00130409 
0.02846510 0.07996708 0.00705614 0.00163864 0.00093001 0.00195534 0.01108581 0.00530558 0.03774344 0.00277884 0.00292207 0.05765650 0.00527735 0.00617045 0.00715718 0.00130339 
0.02963384 0.08032337 0.00707644 0.00159699 0.00091916 0.00193787 0.01116945 0.00525012 0.03738189 0.00278043 0.00295397 0.05912492 0.00520815 0.00627359 0.00729988 0.00130237 
0.03083796 0.08058353 0.00709249 0.00155650 0.00090833 0.00191923 0.01124661 0.00519138 0.03699153 0.00278093 0.00298512 0.06057425 0.00513840 0.00637530 0.00744300 0.00130104 
0.03207231 0.08074645 0.00710425 0.00151732 0.00089756 0.00189952 0.01131728 0.00512957 0.03657419 0.00278035 0.00301541 0.06200238 0.00506868 0.00647538 0.00758648 0.00129940 
0.03333166 0.08081140 0.00711170 0.00147960 0.00088688 0.00187884 0.01138146 0.00506493 0.03613182 0.00277866 0.00304475 0.06340733 0.00499960 0.00657366 0.00773024 0.00129746 
0.03461079 0.08077796 0.00711485 0.00144350 0.00087630 0.00185730 0.01143920 0.00499766 0.03566643 0.00277586 0.00307302 0.06478721 0.00493174 0.00667000 0.00787420 0.00129521 
0.03590448 0.08064610 0.00711373 0.00140914 0.00086585 0.00183501 0.01149051 0.00492800 0.03518009 0.00277193 0.00310013 0.06614026 0.00486567 0.00676425 0.00801828 0.00129268 
0.03720752 0.08041612 0.00710839 0.00137667 0.00085556 0.00181208 0.01153545 0.00485618 0.03467495 0.00276686 0.00312599 0.06746481 0.00480194 0.00685628 0.00816239 0.00128986 
0.03851478 0.08008868 0.00709891 0.00134621 0.00084547 0.00178861 0.01157407 0.00478244 0.03415318 0.00276065 0.00315051 0.06875934 0.00474110 0.00694596 0.00830643 0.00128679 
0.03982119 0.07966481 0.00708540 0.00131788 0.00083561 0.00176471 0.01160644 0.00470702 0.03361702 0.00275330 0.00317358 0.07002244 0.00468364 0.00703318 0.00845030 0.00128347 
0.04112178 0.07914585 0.00706796 0.00129178 0.00082600 0.00174049 0.01163260 0.00463018 0.03306870 0.00274478 0.00319512 0.07125281 0.00463007 0.00711786 0.00859388 0.00127992 
0.04241168 0.07853352 0.00704674 0.00126803 0.00081668 0.00171606 0.01165264 0.00455214 0.03251051 0.00273511 0.00321504 0.07244930 0.00458083 0.00719991 0.00873705 0.00127618 
0.04368618 0.07782986 0.00702191 0.00124672 0.00080768 0.00169152 0.01166662 0.00447317 0.03194471 0.00272429 0.00323327 0.07361089 0.00453635 0.00727924 0.00887968 0.00127225 
0.04494070 0.07703723 0.00699362 0.00122792 0.00079903 0.00166698 0.01167461 0.00439351 0.03137358 0.00271230 0.00324971 0.07473667 0.00449702 0.00735580 0.00902164 0.00126818 
0.04617084 0.07615833 0.00696208 0.00121171 0.00079077 0.00164254 0.01167668 0.00431342 0.03079938 0.00269916 0.00326428 0.07582588 0.00446318 0.00742952 0.00916276 0.00126398 
0.04737239 0.07519615 0.00692749 0.00119816 0.00078293 0.00161829 0.01167288 0.00423315 0.03022437 0.00268488 0.00327692 0.07687785 0.00443516 0.00750037 0.00930289 0.00125969 
0.04854135 0.07415400 0.00689007 0.00118733 0.00077553 0.00159435 0.01166330 0.00415294 0.02965076 0.00266946 0.00328755 0.07789209 0.00441323 0.00756830 0.00944188 0.00125533 
0.04967394 0.07303544 0.00685004 0.00117924 0.00076860 0.00157078 0.01164797 0.00407305 0.02908073 0.00265292 0.00329609 0.07886820 0.00439761 0.00763329 0.00957953 0.00125094 
0.05076660 0.07184433 0.00680764 0.00117394 0.00076218 0.00154770 0.01162696 0.00399374 0.02851641 0.00263527 0.00330249 0.07980590 0.00438851 0.00769531 0.00971567 0.00124656 
0.05181602 0.07058476 0.00676311 0.00117144 0.00075629 0.00152517 0.01160030 0.00391524 0.02795989 0.00261653 0.00330667 0.08070504 0.00438605 0.00775434 0.00985011 0.00124221 
0.05281917 0.06926106 0.00671671 0.00117176 0.00075094 0.00150328 0.01156805 0.00383782 0.02741319 0.00259671 0.00330858 0.08156559 0.00439035 0.00781039 0.00998265 0.00123793 
0.05377325 0.06787778 0.00666868 0.00117490 0.00074616 0.00148211 0.01153022 0.00376170 0.02687826 0.00257585 0.00330816 0.08238763 0.00440147 0.00786344 0.01011308 0.00123375 
0.05467576 0.06643967 0.00661929 0.00118085 0.00074196 0.00146173 0.01148685 0.00368714 0.02635699 0.00255397 0.00330535 0.08317132 0.00441940 0.00791349 0.01024119 0.00122971 
0.05552448 0.06495165 0.00656878 0.00118958 0.00073837 0.00144220 0.01143796 0.00361438 0.02585116 0.00253111 0.00330013 0.08391695 0.00444413 0.00796056 0.01036677 0.00122584 
0.05631747 0.06341880 0.00651741 0.00120106 0.00073537 0.00142359 0.01138356 0.00354364 0.02536249 0.00250729 0.00329243 0.08462490 0.00447559 0.00800464 0.01048960 0.00122218 
0.05705308 0.06184633 0.00646543 0.00121525 0.00073299 0.00140595 0.01132366 0.00347518 0.02489261 0.00248256 0.00328223 0.08529563 0.00451365 0.00804576 0.01060946 0.00121875 
0.05772995 0.06023957 0.00641310 0.00123211 0.00073122 0.00138933 0.01125826 0.00340920 0.02444302 0.00245696 0.00326949 0.08592967 0.00455817 0.00808393 0.01072613 0.00121559 
0.05834702 0.05860392 0.00636065 0.00125155 0.00073006 0.00137378 0.01118737 0.00334595 0.02401514 0.00243053 0.00325419 0.08652764 0.00460895 0.00811917 0.01083937 0.00121273 
0.05890350 0.05694488 0.00630831 0.00127353 0.00072951 0.00135933 0.01111098 0.00328563 0.02361030 0.00240332 0.00323630 0.08709022 0.00466577 0.00815150 0.01094898 0.00121020 
0.05939893 0.05526795 0.00625632 0.00129795 0.00072954 0.00134604 0.01102908 0.00322846 0.02322969 0.00237538 0.00321583 0.08761815 0.00472836 0.00818094 0.01105472 0.00120802 
0.05983308 0.05357869 0.00620488 0.00132473 0.00073015 0.00133391 0.01094168 0.00317465 0.02287441 0.00234677 0.00319275 0.08811222 0.00479643 0.00820752 0.01115639 0.00120621 
0.06020604 0.05188262 0.00615421 0.00135377 0.00073131 0.00132299 0.01084878 0.00312440 0.02254543 0.00231755 0.00316709 0.08857323 0.00486965 0.00823125 0.01125376 0.00120480 
0.06051815 0.05018525 0.00610449 0.00138496 0.00073299 0.00131329 0.01075037 0.00307790 0.02224360 0.00228777 0.00313883 0.08900206 0.00494768 0.00825217 0.01134663 0.00120381 
0.06077001 0.04849204 0.00605592 0.00141819 0.00073517 0.00130483 0.01064646 0.00303534 0.02196967 0.00225752 0.00310802 0.08939958 0.00503014 0.00827030 0.01143480 0.00120326 
0.06096248 0.04680836 0.00600864 0.00145335 0.00073781 0.00129762 0.01053708 0.00299691 0.02172426 0.00222685 0.00307467 0.08976668 0.00511663 0.00828567 0.01151808 0.00120315 
0.06109665 0.04513949 0.00596283 0.00149031 0.00074086 0.00129166 0.01042224 0.00296277 0.02150786 0.00219584 0.00303882 0.09010425 0.00520675 0.00829829 0.01159628 0.00120351 
0.06117385 0.04349059 0.00591861 0.00152893 0.00074428 0.00128696 0.01030199 0.00293308 0.02132085 0.00216457 0.00300053 0.09041318 0.00530007 0.00830821 0.01166923 0.00120434 
0.06119559 0.04186666 0.00587612 0.00156908 0.00074802 0.00128352 0.01017637 0.00290801 0.02116350 0.00213311 0.00295986 0.09069435 0.00539615 0.00831544 0.01173677 0.00120564 
0.06116361 0.04027258 0.00583546 0.00161062 0.00075202 0.00128132 0.01004547 0.00288768 0.02103594 0.00210155 0.00291687 0.09094860 0.00549455 0.00832002 0.01179875 0.00120742 
0.06107983 0.03871299 0.00579672 0.00165340 0.00075623 0.00128037 0.00990937 0.00287224 0.02093819 0.00206998 0.00287165 0.09117676 0.00559481 0.00832197 0.01185503 0.00120968 
0.06094631 0.03719237 0.00575999 0.00169727 0.00076058 0.00128065 0.00976817 0.00286180 0.02087016 0.00203847 0.00282428 0.09137962 0.00569649 0.00832132 0.01190549 0.00121241 
0.06076528 0.03571495 0.00572533 0.00174209 0.00076501 0.00128214 0.00962202 0.00285647 0.02083164 0.00200713 0.00277489 0.09155791 0.00579913 0.00831811 0.01195003 0.00121560 
0.06053909 0.03428474 0.00569280 0.00178768 0.00076945 0.00128483 0.00947107 0.00285635 0.02082232 0.00197605 0.00272359 0.09171233 0.00590230 0.00831236 0.01198855 0.00121926 
0.06027019 0.03290549 0.00566242 0.00183391 0.00077381 0.00128869 0.00931552 0.00286153 0.02084176 0.00194532 0.00267050 0.09184349 0.00600557 0.00830410 0.01202098 0.00122336 
0.05996115 0.03158068 0.00563423 0.00188061 0.00077804 0.00129370 0.00915557 0.00287208 0.02088944 0.00191505 0.00261578 0.09195199 0.00610850 0.00829337 0.01204727 0.00122788 
0.05961458 0.03031351 0.00560823 0.00192761 0.00078204 0.00129984 0.00899148 0.00288804 0.02096472 0.00188533 0.00255958 0.09203832 0.00621069 0.00828021 0.01206737 0.00123281 
0.05923316 0.02910689 0.00558443 0.00197477 0.00078575 0.00130707 0.00882354 0.00290948 0.02106688 0.00185627 0.00250207 0.09210291 0.00631174 0.00826466 0.01208126 0.00123813 
0.05881962 0.02796342 0.00556282 0.00202192 0.00078908 0.00131537 0.00865205 0.00293640 0.02119511 0.00182798 0.00244344 0.09214613 0.00641128 0.00824675 0.01208894 0.00124380 
0.05837667 0.02688539 0.00554338 0.00206890 0.00079195 0.00132470 0.00847736 0.00296883 0.02134849 0.00180057 0.00238388 0.09216827 0.00650897 0.00822654 0.01209043 0.00124981 
0.05790704 0.02587478 0.00552608 0.00211556 0.00079428 0.00133502 0.00829988 0.00300676 0.02152605 0.00177414 0.00232360 0.09216955 0.00660446 0.00820407 0.01208575 0.00125613 
0.05741343 0.02493323 0.00551089 0.00216174 0.00079599 0.00134632 0.00812001 0.00305017 0.02172672 0.00174880 0.00226284 0.09215012 0.00669746 0.00817940 0.01207497 0.00126272 
0.05689853 0.02406207 0.00549776 0.00220728 0.00079700 0.00135855 0.00793823 0.00309903 0.02194937 0.00172467 0.00220181 0.09211006 0.00678769 0.00815258 0.01205816 0.00126954 
0.05636493 0.02326230 0.00548666 0.00225204 0.00079724 0.00137167 0.00775504 0.00315328 0.02219280 0.00170186 0.00214077 0.09204938 0.00687490 0.00812368 0.01203541 0.00127657 
0.05581517 0.02253457 0.00547754 0.00229588 0.00079663 0.00138564 0.00757096 0.00321284 0.02245578 0.00168049 0.00207998 0.09196803 0.00695887 0.00809277 0.01200682 0.00128376 
0.05525173 0.02187922 0.00547035 0.00233864 0.00079509 0.00140044 0.00738658 0.00327765 0.02273699 0.00166067 0.00201970 0.09186590 0.00703940 0.00805991 0.01197253 0.00129107 
0.05467694 0.02129628 0.00546504 0.00238019 0.00079257 0.00141601 0.00720250 0.00334758 0.02303508 0.00164251 0.00196022 0.09174284 0.00711635 0.00802519 0.01193269 0.00129847 
0.05409307 0.02078542 0.00546157 0.00242040 0.00078899 0.00143233 0.00701936 0.00342251 0.02334867 0.00162614 0.00190182 0.09159865 0.00718957 0.00798870 0.01188746 0.00130592 
0.05350222 0.02034605 0.00545988 0.00245914 0.00078429 0.00144935 0.00683785 0.00350232 0.02367635 0.00161166 0.00184480 0.09143309 0.00725897 0.00795052 0.01183701 0.00131337 
0.05290639 0.01997723 0.00545995 0.00249628 0.00077842 0.00146703 0.00665866 0.00358683 0.02401667 0.00159919 0.00178946 0.09124591 0.00732448 0.00791075 0.01178156 0.00132078 
0.05230741 0.01967775 0.00546173 0.00253171 0.00077133 0.00148534 0.00648252 0.00367588 0.02436817 0.00158884 0.00173611 0.09103683 0.00738606 0.00786951 0.01172132 0.00132812 
0.05170699 0.01944612 0.00546521 0.00256531 0.00076297 0.00150422 0.00631021 0.00376928 0.02472939 0.00158073 0.00168506 0.09080558 0.00744369 0.00782689 0.01165651 0.00133533 
0.05110666 0.01928057 0.00547034 0.00259699 0.00075332 0.00152366 0.00614249 0.00386682 0.02509884 0.00157497 0.00163664 0.09055188 0.00749740 0.00778303 0.01158739 0.00134237 
0.05050780 0.01917908 0.00547714 0.00262666 0.00074233 0.00154360 0.00598016 0.00396828 0.02547505 0.00157165 0.00159117 0.09027550 0.00754723 0.00773805 0.01151422 0.00134921 
0.04991161 0.01913939 0.00548558 0.00265421 0.00072999 0.00156400 0.00582404 0.00407343 0.02585657 0.00157090 0.00154895 0.08997621 0.00759325 0.00769207 0.01143728 0.00135581 
0.04931915 0.01915902 0.00549568 0.00267957 0.00071629 0.00158483 0.00567496 0.00418200 0.02624193 0.00157280 0.00151032 0.08965384 0.00763554 0.00764524 0.01135684 0.00136212 
0.04873130 0.01923528 0.00550746 0.00270267 0.00070122 0.00160605 0.00553375 0.00429374 0.02662973 0.00157746 0.00147558 0.08930828 0.00767423 0.00759771 0.01127321 0.00136811 
0.04814876 0.01936530 0.00552095 0.00272344 0.00068478 0.00162761 0.00540123 0.00440838 0.02701855 0.00158497 0.00144506 0.08893948 0.00770945 0.00754961 0.01118671 0.00137374 
0.04757210 0.01954605 0.00553618 0.00274184 0.00066699 0.00164948 0.00527824 0.00452561 0.02740703 0.00159543 0.00141905 0.08854747 0.00774134 0.00750111 0.01109765 0.00137898 
0.04700170 0.01977433 0.00555321 0.00275781 0.00064786 0.00167161 0.00516561 0.00464515 0.02779385 0.00160890 0.00139785 0.08813240 0.00777008 0.00745236 0.01100636 0.00138379 
0.04643782 0.02004684 0.00557211 0.00277132 0.00062743 0.00169398 0.00506414 0.00476667 0.02817773 0.00162548 0.00138175 0.08769450 0.00779585 0.00740353 0.01091318 0.00138815 
0.04588054 0.02036017 0.00559295 0.00278234 0.00060574 0.00171654 0.00497462 0.00488987 0.02855743 0.00164524 0.00137103 0.08723412 0.00781884 0.00735478 0.01081845 0.00139202 
0.04532983 0.02071081 0.00561582 0.00279086 0.00058284 0.00173925 0.00489782 0.00501442 0.02893178 0.00166823 0.00136595 0.08675175 0.00783924 0.00730629 0.01072252 0.00139539 
0.04478551 0.02109523 0.00564082 0.00279687 0.00055878 0.00176207 0.00483448 0.00513998 0.02929966 0.00169452 0.00136674 0.08624800 0.00785728 0.00725822 0.01062575 0.00139822 
0.04424730 0.02150983 0.00566805 0.00280037 0.00053365 0.00178497 0.00478530 0.00526622 0.02966003 0.00172416 0.00137365 0.08572364 0.00787315 0.00721074 0.01052848 0.00140050 
0.04371479 0.02195101 0.00569765 0.00280139 0.00050750 0.00180791 0.00475095 0.00539281 0.03001188 0.00175719 0.00138687 0.08517957 0.00788708 0.00716402 0.01043108 0.00140220 
0.04318749 0.02241516 0.00572973 0.00279993 0.00048044 0.00183085 0.00473204 0.00551939 0.03035430 0.00179364 0.00140661 0.08461685 0.00789927 0.00711823 0.01033391 0.00140333 
0.04266481 0.02289872 0.00576443 0.00279605 0.00045256 0.00185375 0.00472913 0.00564563 0.03068646 0.00183353 0.00143301 0.08403673 0.00790994 0.00707354 0.01023732 0.00140385 
0.04214612 0.02339817 0.00580188 0.00278979 0.00042397 0.00187657 0.00474273 0.00577119 0.03100758 0.00187688 0.00146622 0.08344057 0.00791929 0.00703010 0.01014166 0.00140377 
0.04163069 0.02391006 0.00584225 0.00278120 0.00039478 0.00189929 0.00477329 0.00589572 0.03131696 0.00192368 0.00150635 0.08282993 0.00792753 0.00698808 0.01004729 0.00140307 
0.04111779 0.02443103 0.00588567 0.00277035 0.00036511 0.00192186 0.00482119 0.00601891 0.03161400 0.00197393 0.00155349 0.08220652 0.00793484 0.00694763 0.00995454 0.00140177 
0.04060661 0.02495783 0.00593229 0.00275732 0.00033509 0.00194424 0.00488673 0.00614042 0.03189816 0.00202760 0.00160769 0.08157220 0.00794141 0.00690889 0.00986375 0.00139984 
0.04009637 0.02548734 0.00598227 0.00274220 0.00030486 0.00196642 0.00497015 0.00625992 0.03216898 0.00208466 0.00166897 0.08092899 0.00794741 0.00687199 0.00977525 0.00139731 
0.03958626 0.02601656 0.00603575 0.00272509 0.00027457 0.00198834 0.00507159 0.00637712 0.03242609 0.00214506 0.00173733 0.08027906 0.00795299 0.00683706 0.00968936 0.00139418 
0.03907549 0.02654269 0.00609288 0.00270610 0.00024436 0.00200998 0.00519113 0.00649171 0.03266920 0.00220875 0.00181272 0.07962470 0.00795830 0.00680422 0.00960638 0.00139045 
0.03856330 0.02706305 0.00615379 0.00268534 0.00021440 0.00203130 0.00532875 0.00660340 0.03289807 0.00227565 0.00189507 0.07896835 0.00796346 0.00677356 0.00952661 0.00138614 
0.03804897 0.02757520 0.00621862 0.00266295 0.00018483 0.00205228 0.00548434 0.00671191 0.03311258 0.00234568 0.00198426 0.07831255 0.00796860 0.00674519 0.00945032 0.00138127 
0.03753182 0.02807686 0.00628748 0.00263907 0.00015583 0.00207289 0.00565769 0.00681699 0.03331264 0.00241872 0.00208016 0.07765995 0.00797380 0.00671918 0.00937779 0.00137585 
0.03701125 0.02856597 0.00636049 0.00261383 0.00012756 0.00209309 0.00584852 0.00691839 0.03349827 0.00249468 0.00218257 0.07701328 0.00797915 0.00669559 0.00930925 0.00136991 
0.03648672 0.02904067 0.00643773 0.00258740 0.00010019 0.00211286 0.00605644 0.00701587 0.03366952 0.00257342 0.00229129 0.07637534 0.00798472 0.00667446 0.00924494 0.00136346 
0.03595779 0.02949934 0.00651928 0.00255994 0.00007389 0.00213218 0.00628097 0.00710924 0.03382654 0.00265481 0.00240605 0.07574899 0.00799054 0.00665584 0.00918506 0.00135654 
0.03542411 0.02994059 0.00660521 0.00253163 0.00004884 0.00215102 0.00652152 0.00719828 0.03396951 0.00273867 0.00252657 0.07513712 0.00799664 0.00663974 0.00912982 0.00134917 
0.03488544 0.03036322 0.00669556 0.00250263 0.00002521 0.00216936 0.00677743 0.00728284 0.03409868 0.00282486 0.00265253 0.07454263 0.00800305 0.00662614 0.00907937 0.00134138 
0.03434165 0.03076631 0.00679035 0.00247314 0.00000316 0.00218717 0.00704792 0.00736276 0.03421435 0.00291317 0.00278357 0.07396842 0.00800977 0.00661505 0.00903386 0.00133321 
0.03379272 0.03114913 0.00688957 0.00244334 0.00001713 0.00220445 0.00733215 0.00743790 0.03431687 0.00300342 0.00291929 0.07341736 0.00801677 0.00660642 0.00899342 0.00132469 
0.03323879 0.03151120 0.00699320 0.00241343 0.00003551 0.00222117 0.00762917 0.00750816 0.03440661 0.00309540 0.00305927 0.07289225 0.00802402 0.00660020 0.00895815 0.00131585 
0.03268009 0.03185226 0.00710119 0.00238360 0.00005180 0.00223732 0.00793794 0.00757344 0.03448400 0.00318888 0.00320306 0.07239585 0.00803149 0.00659631 0.00892813 0.00130673 
0.03211701 0.03217227 0.00721346 0.00235407 0.00006585 0.00225289 0.00825734 0.00763368 0.03454948 0.00328362 0.00335018 0.07193080 0.00803911 0.00659469 0.00890341 0.00129737 
0.03155007 0.03247138 0.00732990 0.00232502 0.00007751 0.00226787 0.00858619 0.00768882 0.03460352 0.00337940 0.00350011 0.07149964 0.00804683 0.00659521 0.00888403 0.00128782 
0.03097993 0.03274998 0.00745038 0.00229667 0.00008664 0.00228225 0.00892322 0.00773885 0.03464659 0.00347594 0.00365232 0.07110474 0.00805458 0.00659776 0.00886999 0.00127809 
0.03040738 0.03300862 0.00757475 0.00226923 0.00009311 0.00229602 0.00926710 0.00778375 0.03467919 0.00357298 0.00380624 0.07074835 0.00806226 0.00660222 0.00886127 0.00126825 
0.02983335 0.03324805 0.00770282 0.00224289 0.00009678 0.00230918 0.00961643 0.00782355 0.03470181 0.00367025 0.00396132 0.07043252 0.00806980 0.00660843 0.00885784 0.00125832 
0.02925891 0.03346917 0.00783435 0.00221787 0.00009753 0.00232173 0.00996977 0.00785828 0.03471493 0.00376745 0.00411693 0.07015910 0.00807709 0.00661624 0.00885962 0.00124835 
0.02868524 0.03367307 0.00796913 0.00219435 0.00009527 0.00233367 0.01032562 0.00788799 0.03471904 0.00386432 0.00427249 0.06992972 0.00808406 0.00662547 0.00886654 0.00123838 
0.02811367 0.03386095 0.00810686 0.00217255 0.00008989 0.00234499 0.01068244 0.00791276 0.03471459 0.00396053 0.00442735 0.06974578 0.00809059 0.00663595 0.00887849 0.00122844 
0.02754562 0.03403414 0.00824724 0.00215264 0.00008131 0.00235572 0.01103866 0.00793269 0.03470203 0.00405580 0.00458089 0.06960845 0.00809661 0.00664748 0.00889533 0.00121858 
0.02698263 0.03419408 0.00838997 0.00213482 0.00006946 0.00236585 0.01139270 0.00794788 0.03468175 0.00414981 0.00473248 0.06951860 0.00810201 0.00665987 0.00891693 0.00120883 
0.02642635 0.03434230 0.00853468 0.00211927 0.00005428 0.00237538 0.01174295 0.00795845 0.03465413 0.00424227 0.00488147 0.06947687 0.00810670 0.00667293 0.00894311 0.00119924 
0.02587851 0.03448042 0.00868100 0.00210615 0.00003573 0.00238433 0.01208779 0.00796454 0.03461952 0.00433285 0.00502723 0.06948358 0.00811060 0.00668644 0.00897370 0.00118982 
0.02534093 0.03461009 0.00882854 0.00209564 0.00001377 0.00239272 0.01242562 0.00796631 0.03457820 0.00442125 0.00516912 0.06953878 0.00811364 0.00670021 0.00900850 0.00118063 
0.02481548 0.03473301 0.00897689 0.00208787 0.00001160 0.00240054 0.01275483 0.00796391 0.03453042 0.00450717 0.00530652 0.06964223 0.00811573 0.00671402 0.00904731 0.00117168 
0.02430411 0.03485089 0.00912561 0.00208300 0.00004039 0.00240781 0.01307387 0.00795753 0.03447637 0.00459029 0.00543882 0.06979337 0.00811683 0.00672768 0.00908990 0.00116302 
0.02380881 0.03496545 0.00927425 0.00208114 0.00007258 0.00241455 0.01338119 0.00794733 0.03441620 0.00467032 0.00556542 0.06999138 0.00811687 0.00674100 0.00913604 0.00115466 
0.02333158 0.03507839 0.00942237 0.00208242 0.00010813 0.00242077 0.01367527 0.00793351 0.03435000 0.00474697 0.00568574 0.07023512 0.00811582 0.00675377 0.00918551 0.00114664 
0.02287446 0.03519137 0.00956949 0.00208694 0.00014701 0.00242648 0.01395469 0.00791626 0.03427778 0.00481994 0.00579923 0.07052315 0.00811365 0.00676584 0.00923806 0.00113898 
0.02243949 0.03530599 0.00971512 0.00209478 0.00018914 0.00243169 0.01421803 0.00789577 0.03419953 0.00488895 0.00590536 0.07085378 0.00811035 0.00677702 0.00929345 0.00113169 
0.02202868 0.03542380 0.00985881 0.00210601 0.00023444 0.00243643 0.01446399 0.00787225 0.03411516 0.00495375 0.00600364 0.07122502 0.00810590 0.00678716 0.00935144 0.00112481 
0.02164404 0.03554625 0.01000005 0.00212069 0.00028282 0.00244071 0.01469132 0.00784589 0.03402452 0.00501408 0.00609359 0.07163462 0.00810033 0.00679612 0.00941179 0.00111833 
0.02128751 0.03567469 0.01013836 0.00213886 0.00033416 0.00244453 0.01489886 0.00781688 0.03392742 0.00506969 0.00617478 0.07208009 0.00809366 0.00680378 0.00947428 0.00111229 
0.02096099 0.03581036 0.01027328 0.00216053 0.00038833 0.00244791 0.01508554 0.00778543 0.03382361 0.00512035 0.00624684 0.07255872 0.00808593 0.00681004 0.00953867 0.00110668 
0.02066630 0.03595438 0.01040433 0.00218572 0.00044520 0.00245086 0.01525041 0.00775172 0.03371278 0.00516585 0.00630939 0.07306754 0.00807720 0.00681481 0.00960476 0.00110152 
0.02040517 0.03610772 0.01053105 0.00221439 0.00050459 0.00245339 0.01539259 0.00771593 0.03359458 0.00520600 0.00636215 0.07360343 0.00806752 0.00681803 0.00967233 0.00109681 
0.02017925 0.03627121 0.01065298 0.00224652 0.00056634 0.00245552 0.01551137 0.00767825 0.03346862 0.00524063 0.00640485 0.07416308 0.00805700 0.00681967 0.00974121 0.00109255 
0.01999004 0.03644551 0.01076971 0.00228206 0.00063026 0.00245724 0.01560611 0.00763884 0.03333447 0.00526957 0.00643728 0.07474301 0.00804572 0.00681971 0.00981123 0.00108874 
0.01983894 0.03663114 0.01088082 0.00232093 0.00069615 0.00245857 0.01567631 0.00759786 0.03319168 0.00529269 0.00645928 0.07533963 0.00803379 0.00681817 0.00988222 0.00108538 
0.01972719 0.03682844 0.01098591 0.00236303 0.00076380 0.00245951 0.01572162 0.00755547 0.03303975 0.00530987 0.00647075 0.07594924 0.00802134 0.00681508 0.00995407 0.00108246 
0.01965588 0.03703756 0.01108463 0.00240827 0.00083298 0.00246006 0.01574180 0.00751179 0.03287818 0.00532103 0.00647161 0.07656805 0.00800850 0.00681050 0.01002666 0.00107998 
0.01962593 0.03725850 0.01117662 0.00245651 0.00090346 0.00246022 0.01573675 0.00746696 0.03270645 0.00532610 0.00646188 0.07719225 0.00799542 0.00680454 0.01009991 0.00107792 
0.01963810 0.03749107 0.01126157 0.00250761 0.00097499 0.00245999 0.01570652 0.00742110 0.03252406 0.00532503 0.00644160 0.07781795 0.00798225 0.00679730 0.01017376 0.00107626 
0.01969295 0.03773491 0.01133921 0.00256139 0.00104732 0.00245937 0.01565127 0.00737431 0.03233047 0.00531781 0.00641088 0.07844131 0.00796917 0.00678894 0.01024819 0.00107500 
0.01979083 0.03798948 0.01140928 0.00261769 0.00112020 0.00245835 0.01557134 0.00732667 0.03212520 0.00530443 0.00636988 0.07905848 0.00795633 0.00677963 0.01032318 0.00107411 
0.01993192 0.03825409 0.01147157 0.00267629 0.00119335 0.00245693 0.01546717 0.00727827 0.03190775 0.00528494 0.00631882 0.07966569 0.00794393 0.00676955 0.01039877 0.00107358 
0.02011617 0.03852786 0.01152588 0.00273700 0.00126651 0.00245510 0.01533937 0.00722917 0.03167769 0.00525938 0.00625796 0.08025922 0.00793214 0.00675895 0.01047500 0.00107338 
0.02034332 0.03880978 0.01157208 0.00279958 0.00133941 0.00245285 0.01518865 0.00717942 0.03143460 0.00522785 0.00618763 0.08083548 0.00792115 0.00674805 0.01055196 0.00107349 
0.02061289 0.03909867 0.01161006 0.00286378 0.00141176 0.00245017 0.01501589 0.00712907 0.03117812 0.00519045 0.00610819 0.08139098 0.00791117 0.00673714 0.01062975 0.00107388 
0.02092418 0.03939324 0.01163974 0.00292936 0.00148329 0.00244705 0.01482205 0.00707814 0.03090793 0.00514731 0.00602007 0.08192241 0.00790238 0.00672649 0.01070852 0.00107453 
0.02127627 0.03969206 0.01166109 0.00299605 0.00155372 0.00244347 0.01460826 0.00702666 0.03062381 0.00509860 0.00592374 0.08242660 0.00789497 0.00671641 0.01078842 0.00107542 
0.02166801 0.03999358 0.01167410 0.00306357 0.00162279 0.00243943 0.01437572 0.00697462 0.03032557 0.00504449 0.00581971 0.08290059 0.00788913 0.00670722 0.01086965 0.00107650 
0.02209805 0.04029616 0.01167881 0.00313163 0.00169022 0.00243490 0.01412578 0.00692204 0.03001313 0.00498520 0.00570854 0.08334162 0.00788506 0.00669926 0.01095241 0.00107777 
0.02256480 0.04059809 0.01167530 0.00319995 0.00175575 0.00242987 0.01385988 0.00686891 0.02968648 0.00492095 0.00559081 0.08374716 0.00788294 0.00669288 0.01103695 0.00107918 
0.02306647 0.04089756 0.01166366 0.00326822 0.00181912 0.00242433 0.01357952 0.00681520 0.02934572 0.00485200 0.00546717 0.08411493 0.00788295 0.00668843 0.01112352 0.00108071 
0.02360106 0.04119273 0.01164405 0.00333614 0.00188007 0.00241828 0.01328634 0.00676090 0.02899102 0.00477862 0.00533827 0.08444288 0.00788525 0.00668627 0.01121239 0.00108233 
0.02416636 0.04148171 0.01161663 0.00340341 0.00193837 0.00241168 0.01298202 0.00670600 0.02862270 0.00470110 0.00520481 0.08472925 0.00789002 0.00668676 0.01130386 0.00108402 
0.02475998 0.04176261 0.01158160 0.00346970 0.00199379 0.00240454 0.01266831 0.00665045 0.02824114 0.00461977 0.00506750 0.08497254 0.00789740 0.00669028 0.01139822 0.00108574 
0.02537935 0.04203352 0.01153919 0.00353473 0.00204610 0.00239685 0.01234703 0.00659424 0.02784687 0.00453494 0.00492710 0.08517153 0.00790755 0.00669717 0.01149578 0.00108748 
0.02602171 0.04229254 0.01148966 0.00359817 0.00209510 0.00238859 0.01202003 0.00653734 0.02744050 0.00444697 0.00478435 0.08532529 0.00792058 0.00670779 0.01159686 0.00108920 
0.02668416 0.04253783 0.01143329 0.00365972 0.00214060 0.00237977 0.01168920 0.00647972 0.02702280 0.00435621 0.00464003 0.08543316 0.00793663 0.00672248 0.01170178 0.00109088 
0.02736365 0.04276756 0.01137036 0.00371909 0.00218242 0.00237038 0.01135645 0.00642136 0.02659462 0.00426305 0.00449492 0.08549477 0.00795579 0.00674158 0.01181085 0.00109251 
0.02805699 0.04298001 0.01130120 0.00377597 0.00222041 0.00236043 0.01102371 0.00636224 0.02615693 0.00416786 0.00434980 0.08551006 0.00797815 0.00676539 0.01192440 0.00109406 
0.02876088 0.04317351 0.01122614 0.00383010 0.00225441 0.00234992 0.01069290 0.00630236 0.02571085 0.00407104 0.00420547 0.08547921 0.00800380 0.00679421 0.01204271 0.00109551 
0.02947192 0.04334650 0.01114552 0.00388118 0.00228431 0.00233886 0.01036593 0.00624172 0.02525757 0.00397300 0.00406269 0.08540270 0.00803278 0.00682831 0.01216609 0.00109684 
0.03018664 0.04349753 0.01105969 0.00392896 0.00231001 0.00232726 0.01004469 0.00618031 0.02479841 0.00387413 0.00392224 0.08528126 0.00806514 0.00686794 0.01229480 0.00109805 
0.03090148 0.04362528 0.01096900 0.00397318 0.00233140 0.00231516 0.00973104 0.00611815 0.02433481 0.00377485 0.00378488 0.08511586 0.00810090 0.00691330 0.01242910 0.00109913 
0.03161286 0.04372856 0.01087382 0.00401361 0.00234844 0.00230256 0.00942678 0.00605529 0.02386829 0.00367558 0.00365136 0.08490776 0.00814008 0.00696460 0.01256921 0.00110005 
0.03231714 0.04380634 0.01077450 0.00405002 0.00236108 0.00228950 0.00913365 0.00599174 0.02340046 0.00357673 0.00352239 0.08465839 0.00818265 0.00702198 0.01271535 0.00110083 
0.03301072 0.04385776 0.01067140 0.00408221 0.00236928 0.00227602 0.00885335 0.00592758 0.02293303 0.00347870 0.00339867 0.08436942 0.00822860 0.00708555 0.01286766 0.00110144 
0.03368996 0.04388211 0.01056486 0.00410998 0.00237306 0.00226216 0.00858748 0.00586286 0.02246780 0.00338191 0.00328086 0.08404274 0.00827786 0.00715539 0.01302630 0.00110190 
0.03435129 0.04387888 0.01045523 0.00413316 0.00237243 0.00224797 0.00833754 0.00579767 0.02200661 0.00328675 0.00316959 0.08368037 0.00833039 0.00723156 0.01319134 0.00110221 
0.03499118 0.04384772 0.01034282 0.00415161 0.00236744 0.00223350 0.00810497 0.00573210 0.02155138 0.00319363 0.00306546 0.08328454 0.00838608 0.00731403 0.01336285 0.00110236 
0.03560616 0.04378849 0.01022796 0.00416520 0.00235813 0.00221881 0.00789107 0.00566628 0.02110408 0.00310291 0.00296902 0.08285758 0.00844484 0.00740278 0.01354082 0.00110237 
0.03619287 0.04370125 0.01011093 0.00417381 0.00234461 0.00220397 0.00769705 0.00560033 0.02066671 0.00301498 0.00288078 0.08240198 0.00850655 0.00749770 0.01372523 0.00110225 
0.03674805 0.04358622 0.00999200 0.00417735 0.00232697 0.00218906 0.00752398 0.00553439 0.02024131 0.00293019 0.00280121 0.08192032 0.00857107 0.00759869 0.01391597 0.00110200 
0.03726857 0.04344386 0.00987144 0.00417577 0.00230534 0.00217415 0.00737282 0.00546862 0.01982991 0.00284888 0.00273071 0.08141524 0.00863824 0.00770555 0.01411291 0.00110165 
0.03775144 0.04327478 0.00974947 0.00416902 0.00227987 0.00215934 0.00724439 0.00540321 0.01943457 0.00277138 0.00266966 0.08088949 0.00870789 0.00781808 0.01431585 0.00110121 
0.03819386 0.04307981 0.00962629 0.00415708 0.00225070 0.00214471 0.00713938 0.00533832 0.01905733 0.00269801 0.00261836 0.08034583 0.00877984 0.00793601 0.01452455 0.00110069 
0.03859319 0.04285997 0.00950210 0.00413996 0.00221804 0.00213037 0.00705831 0.00527418 0.01870020 0.00262904 0.00257706 0.07978704 0.00885387 0.00805904 0.01473870 0.00110013 
0.03894698 0.04261642 0.00937703 0.00411769 0.00218207 0.00211642 0.00700160 0.00521099 0.01836516 0.00256475 0.00254597 0.07921593 0.00892977 0.00818683 0.01495795 0.00109954 
0.03925301 0.04235054 0.00925122 0.00409031 0.00214301 0.00210298 0.00696949 0.00514897 0.01805414 0.00250538 0.00252523 0.07863529 0.00900731 0.00831901 0.01518188 0.00109895 
0.03950928 0.04206385 0.00912476 0.00405791 0.00210108 0.00209015 0.00696209 0.00508838 0.01776902 0.00245116 0.00251491 0.07804786 0.00908623 0.00845514 0.01541004 0.00109838 
0.03971404 0.04175801 0.00899774 0.00402059 0.00205654 0.00207806 0.00697935 0.00502944 0.01751157 0.00240228 0.00251505 0.07745635 0.00916628 0.00859478 0.01564192 0.00109786 
0.03986575 0.04143486 0.00887019 0.00397846 0.00200964 0.00206683 0.00702109 0.00497241 0.01728352 0.00235892 0.00252560 0.07686342 0.00924717 0.00873744 0.01587693 0.00109742 
0.03996319 0.04109634 0.00874214 0.00393167 0.00196063 0.00205660 0.00708697 0.00491755 0.01708646 0.00232123 0.00254647 0.07627163 0.00932863 0.00888260 0.01611448 0.00109709 
0.04000534 0.04074450 0.00861357 0.00388039 0.00190980 0.00204748 0.00717652 0.00486511 0.01692190 0.00228933 0.00257752 0.07568346 0.00941036 0.00902973 0.01635390 0.00109689 
0.03999152 0.04038153 0.00848448 0.00382480 0.00185744 0.00203962 0.00728912 0.00481538 0.01679121 0.00226332 0.00261854 0.07510129 0.00949205 0.00917826 0.01659449 0.00109685 
0.03992127 0.04000967 0.00835480 0.00376511 0.00180382 0.00203315 0.00742402 0.00476859 0.01669563 0.00224327 0.00266926 0.07452740 0.00957340 0.00932760 0.01683552 0.00109701 
0.03979446 0.03963126 0.00822446 0.00370156 0.00174925 0.00202821 0.00758034 0.00472503 0.01663627 0.00222921 0.00272936 0.07396395 0.00965407 0.00947715 0.01707622 0.00109739 
0.03961122 0.03924866 0.00809339 0.00363438 0.00169403 0.00202493 0.00775708 0.00468493 0.01661407 0.00222116 0.00279848 0.07341295 0.00973374 0.00962630 0.01731577 0.00109801 
0.03937197 0.03886431 0.00796148 0.00356384 0.00163845 0.00202344 0.00795312 0.00464856 0.01662984 0.00221911 0.00287620 0.07287633 0.00981208 0.00977443 0.01755336 0.00109891 
0.03907743 0.03848065 0.00782862 0.00349022 0.00158281 0.00202389 0.00816723 0.00461616 0.01668420 0.00222303 0.00296206 0.07235584 0.00988874 0.00992093 0.01778814 0.00110011 
0.03872858 0.03810012 0.00769469 0.00341382 0.00152741 0.00202639 0.00839809 0.00458795 0.01677761 0.00223284 0.00305554 0.07185313 0.00996338 0.01006517 0.01801923 0.00110163 
0.03832669 0.03772517 0.00755955 0.00333493 0.00147255 0.00203108 0.00864427 0.00456416 0.01691036 0.00224846 0.00315609 0.07136969 0.01003565 0.01020653 0.01824579 0.00110350 
0.03787330 0.03735822 0.00742310 0.00325390 0.00141852 0.00203807 0.00890427 0.00454500 0.01708255 0.00226976 0.00326313 0.07090689 0.01010521 0.01034442 0.01846692 0.00110573 
0.03737023 0.03700164 0.00728518 0.00317104 0.00136560 0.00204748 0.00917651 0.00453064 0.01729410 0.00229661 0.00337603 0.07046599 0.01017171 0.01047825 0.01868176 0.00110835 
0.03681953 0.03665773 0.00714569 0.00308670 0.00131407 0.00205943 0.00945935 0.00452127 0.01754475 0.00232884 0.00349414 0.07004808 0.01023480 0.01060744 0.01888944 0.00111136 
0.03622352 0.03632874 0.00700451 0.00300123 0.00126419 0.00207402 0.00975111 0.00451703 0.01783405 0.00236627 0.00361678 0.06965417 0.01029413 0.01073146 0.01908913 0.00111478 
0.03558474 0.03601683 0.00686153 0.00291500 0.00121622 0.00209133 0.01005005 0.00451805 0.01816139 0.00240868 0.00374324 0.06928513 0.01034937 0.01084979 0.01927998 0.00111862 
0.03490596 0.03572404 0.00671668 0.00282836 0.00117040 0.00211145 0.01035439 0.00452444 0.01852593 0.00245585 0.00387280 0.06894174 0.01040016 0.01096194 0.01946121 0.00112290 
0.03419015 0.03545233 0.00656987 0.00274168 0.00112697 0.00213446 0.01066237 0.00453628 0.01892671 0.00250753 0.00400472 0.06862468 0.01044618 0.01106747 0.01963205 0.00112760 
0.03344048 0.03520349 0.00642108 0.00265532 0.00108614 0.00216042 0.01097219 0.00455362 0.01936255 0.00256344 0.00413825 0.06833453 0.01048709 0.01116597 0.01979177 0.00113274 
0.03266029 0.03497921 0.00627028 0.00256967 0.00104812 0.00218938 0.01128205 0.00457650 0.01983212 0.00262332 0.00427264 0.06807181 0.01052259 0.01125708 0.01993969 0.00113830 
0.03185309 0.03478103 0.00611748 0.00248509 0.00101308 0.00222138 0.01159018 0.00460491 0.02033392 0.00268685 0.00440714 0.06783696 0.01055235 0.01134048 0.02007518 0.00114430 
0.03102253 0.03461032 0.00596274 0.00240195 0.00098120 0.00225643 0.01189483 0.00463884 0.02086630 0.00275372 0.00454098 0.06763036 0.01057608 0.01141591 0.02019766 0.00115072 
0.03017236 0.03446831 0.00580613 0.00232061 0.00095261 0.00229456 0.01219429 0.00467822 0.02142745 0.00282362 0.00467343 0.06745235 0.01059349 0.01148315 0.02030663 0.00115754 
0.02930646 0.03435605 0.00564778 0.00224143 0.00092747 0.00233574 0.01248687 0.00472297 0.02201544 0.00289620 0.00480374 0.06730324 0.01060430 0.01154203 0.02040162 0.00116476 
0.02842878 0.03427442 0.00548785 0.00216475 0.00090587 0.00237997 0.01277098 0.00477298 0.02262819 0.00297113 0.00493120 0.06718329 0.01060825 0.01159246 0.02048226 0.00117236 
0.02754334 0.03422414 0.00532655 0.00209093 0.00088790 0.00242721 0.01304505 0.00482811 0.02326352 0.00304805 0.00505511 0.06709278 0.01060510 0.01163438 0.02054824 0.00118031 
0.02665419 0.03420573 0.00516413 0.00202030 0.00087364 0.00247739 0.01330762 0.00488818 0.02391911 0.00312661 0.00517478 0.06703196 0.01059462 0.01166782 0.02059933 0.00118861 
0.02576542 0.03421955 0.00500089 0.00195317 0.00086314 0.00253045 0.01355729 0.00495300 0.02459259 0.00320645 0.00528958 0.06700110 0.01057660 0.01169283 0.02063536 0.00119721 
0.02488112 0.03426578 0.00483719 0.00188985 0.00085643 0.00258631 0.01379275 0.00502235 0.02528147 0.00328720 0.00539888 0.06700046 0.01055084 0.01170955 0.02065626 0.00120611 
0.02400533 0.03434443 0.00467341 0.00183065 0.00085352 0.00264485 0.01401281 0.00509597 0.02598319 0.00336851 0.00550210 0.06703035 0.01051719 0.01171816 0.02066203 0.00121526 
0.02314209 0.03445532 0.00451001 0.00177584 0.00085440 0.00270595 0.01421636 0.00517358 0.02669517 0.00345001 0.00559869 0.06709109 0.01047548 0.01171890 0.02065276 0.00122463 
0.02229536 0.03459812 0.00434748 0.00172568 0.00085904 0.00276947 0.01440241 0.00525489 0.02741474 0.00353135 0.00568815 0.06718303 0.01042561 0.01171209 0.02062862 0.00123420 
0.02146903 0.03477234 0.00418637 0.00168043 0.00086739 0.00283526 0.01457010 0.00533957 0.02813922 0.00361217 0.00577001 0.06730657 0.01036747 0.01169807 0.02058984 0.00124392 
0.02066688 0.03497731 0.00402727 0.00164031 0.00087939 0.00290313 0.01471866 0.00542728 0.02886593 0.00369212 0.00584387 0.06746215 0.01030098 0.01167726 0.02053676 0.00125377 
0.01989259 0.03521223 0.00387082 0.00160552 0.00089495 0.00297291 0.01484746 0.00551766 0.02959216 0.00377087 0.00590934 0.06765023 0.01022610 0.01165010 0.02046979 0.00126370 
0.01914968 0.03547615 0.00371770 0.00157626 0.00091396 0.00304439 0.01495601 0.00561034 0.03031523 0.00384809 0.00596613 0.06787135 0.01014282 0.01161711 0.02038941 0.00127369 
0.01844154 0.03576800 0.00356865 0.00155270 0.00093630 0.00311734 0.01504393 0.00570491 0.03103247 0.00392344 0.00601396 0.06812606 0.01005115 0.01157883 0.02029617 0.00128368 
0.01777140 0.03608655 0.00342442 0.00153498 0.00096184 0.00319152 0.01511096 0.00580097 0.03174127 0.00399663 0.00605262 0.06841497 0.00995111 0.01153586 0.02019069 0.00129365 
0.01714228 0.03643048 0.00328581 0.00152321 0.00099042 0.00326670 0.01515700 0.00589812 0.03243906 0.00406735 0.00608196 0.06873872 0.00984279 0.01148881 0.02007369 0.00130355 
0.01655703 0.03679838 0.00315367 0.00151751 0.00102189 0.00334261 0.01518205 0.00599592 0.03312334 0.00413533 0.00610187 0.06909799 0.00972628 0.01143835 0.01994589 0.00131335 
0.01601828 0.03718871 0.00302884 0.00151795 0.00105605 0.00341897 0.01518626 0.00609394 0.03379169 0.00420030 0.00611231 0.06949348 0.00960172 0.01138515 0.01980813 0.00132300 
0.01552843 0.03759988 0.00291222 0.00152457 0.00109272 0.00349550 0.01516988 0.00619176 0.03444176 0.00426200 0.00611329 0.06992591 0.00946927 0.01132993 0.01966126 0.00133248 
0.01508968 0.03803020 0.00280470 0.00153742 0.00113170 0.00357191 0.01513331 0.00628895 0.03507134 0.00432019 0.00610488 0.07039602 0.00932912 0.01127340 0.01950619 0.00134175 
0.01470396 0.03847793 0.00270721 0.00155648 0.00117277 0.00364790 0.01507704 0.00638507 0.03567831 0.00437467 0.00608718 0.07090454 0.00918150 0.01121630 0.01934388 0.00135077 
0.01437296 0.03894129 0.00262065 0.00158174 0.00121572 0.00372316 0.01500171 0.00647970 0.03626066 0.00442522 0.00606039 0.07145219 0.00902667 0.01115938 0.01917531 0.00135951 
0.01409812 0.03941844 0.00254597 0.00161314 0.00126032 0.00379738 0.01490803 0.00657243 0.03681654 0.00447168 0.00602471 0.07203970 0.00886492 0.01110336 0.01900149 0.00136794 
0.01388063 0.03990753 0.00248408 0.00165063 0.00130633 0.00387025 0.01479685 0.00666283 0.03734422 0.00451387 0.00598044 0.07266773 0.00869657 0.01104901 0.01882346 0.00137603 
0.01372141 0.04040668 0.00243588 0.00169410 0.00135353 0.00394145 0.01466908 0.00675053 0.03784213 0.00455166 0.00592788 0.07333691 0.00852196 0.01099703 0.01864226 0.00138374 
0.01362109 0.04091401 0.00240227 0.00174343 0.00140167 0.00401066 0.01452576 0.00683513 0.03830884 0.00458492 0.00586742 0.07404783 0.00834148 0.01094815 0.01845896 0.00139107 
0.01358009 0.04142763 0.00238411 0.00179847 0.00145051 0.00407757 0.01436798 0.00691626 0.03874311 0.00461355 0.00579948 0.07480097 0.00815553 0.01090307 0.01827462 0.00139797 
0.01359850 0.04194570 0.00238225 0.00185906 0.00149981 0.00414187 0.01419691 0.00699358 0.03914383 0.00463746 0.00572449 0.07559676 0.00796456 0.01086244 0.01809029 0.00140444 
0.01367620 0.04246634 0.00239747 0.00192502 0.00154933 0.00420324 0.01401381 0.00706675 0.03951009 0.00465660 0.00564298 0.07643551 0.00776902 0.01082692 0.01790700 0.00141046 
0.01381277 0.04298776 0.00243053 0.00199611 0.00159883 0.00426140 0.01381998 0.00713548 0.03984112 0.00467092 0.00555545 0.07731744 0.00756939 0.01079709 0.01772579 0.00141600 
0.01400755 0.04350816 0.00248214 0.00207212 0.00164807 0.00431605 0.01361676 0.00719947 0.04013635 0.00468040 0.00546248 0.07824261 0.00736619 0.01077353 0.01754765 0.00142106 
0.01425964 0.04402582 0.00255293 0.00215278 0.00169683 0.00436690 0.01340554 0.00725846 0.04039537 0.00468503 0.00536466 0.07921097 0.00715995 0.01075676 0.01737354 0.00142562 
0.01456786 0.04453906 0.00264348 0.00223782 0.00174488 0.00441370 0.01318776 0.00731222 0.04061795 0.00468483 0.00526259 0.08022230 0.00695122 0.01074725 0.01720440 0.00142969 
0.01493083 0.04504624 0.00275430 0.00232695 0.00179199 0.00445618 0.01296484 0.00736054 0.04080403 0.00467984 0.00515692 0.08127623 0.00674056 0.01074541 0.01704111 0.00143324 
0.01534691 0.04554581 0.00288583 0.00241984 0.00183797 0.00449411 0.01273825 0.00740324 0.04095372 0.00467009 0.00504829 0.08237219 0.00652856 0.01075160 0.01688450 0.00143629 
0.01581425 0.04603627 0.00303840 0.00251619 0.00188260 0.00452726 0.01250945 0.00744016 0.04106730 0.00465567 0.00493736 0.08350945 0.00631582 0.01076615 0.01673538 0.00143883 
0.01633081 0.04651619 0.00321229 0.00261564 0.00192570 0.00455543 0.01227988 0.00747119 0.04114521 0.00463665 0.00482481 0.08468706 0.00610293 0.01078928 0.01659445 0.00144087 
0.01689432 0.04698424 0.00340766 0.00271783 0.00196708 0.00457843 0.01205098 0.00749623 0.04118806 0.00461313 0.00471132 0.08590390 0.00589053 0.01082119 0.01646240 0.00144240 
0.01750234 0.04743915 0.00362458 0.00282239 0.00200657 0.00459610 0.01182417 0.00751521 0.04119658 0.00458524 0.00459754 0.08715862 0.00567922 0.01086198 0.01633982 0.00144345 
0.01815225 0.04787971 0.00386302 0.00292896 0.00204400 0.00460829 0.01160082 0.00752810 0.04117167 0.00455310 0.00448416 0.08844964 0.00546963 0.01091171 0.01622724 0.00144401 
0.01884129 0.04830484 0.00412285 0.00303712 0.00207924 0.00461489 0.01138227 0.00753488 0.04111436 0.00451686 0.00437183 0.08977520 0.00526238 0.01097037 0.01612514 0.00144411 
0.01956653 0.04871350 0.00440383 0.00314650 0.00211214 0.00461579 0.01116980 0.00753558 0.04102582 0.00447666 0.00426120 0.09113329 0.00505811 0.01103787 0.01603389 0.00144376 
0.02032491 0.04910476 0.00470560 0.00325668 0.00214258 0.00461093 0.01096466 0.00753025 0.04090731 0.00443267 0.00415289 0.09252170 0.00485742 0.01111406 0.01595383 0.00144297 
0.02111326 0.04947776 0.00502772 0.00336725 0.00217045 0.00460025 0.01076799 0.00751896 0.04076024 0.00438508 0.00404752 0.09393799 0.00466092 0.01119872 0.01588518 0.00144176 
0.02192830 0.04983173 0.00536961 0.00347780 0.00219566 0.00458374 0.01058091 0.00750180 0.04058608 0.00433406 0.00394567 0.09537950 0.00446922 0.01129159 0.01582812 0.00144016 
0.02276668 0.05016598 0.00573058 0.00358793 0.00221813 0.00456141 0.01040442 0.00747892 0.04038641 0.00427981 0.00384790 0.09684339 0.00428289 0.01139230 0.01578274 0.00143818 
0.02362497 0.05047991 0.00610985 0.00369721 0.00223777 0.00453327 0.01023947 0.00745044 0.04016289 0.00422253 0.00375472 0.09832658 0.00410252 0.01150045 0.01574905 0.00143585 
0.02449966 0.05077301 0.00650651 0.00380525 0.00225455 0.00449939 0.01008689 0.00741655 0.03991724 0.00416242 0.00366663 0.09982584 0.00392864 0.01161559 0.01572700 0.00143320 
0.02538723 0.05104481 0.00691956 0.00391163 0.00226841 0.00445986 0.00994746 0.00737743 0.03965124 0.00409971 0.00358408 0.10133772 0.00376180 0.01173717 0.01571644 0.00143024 
0.02628413 0.05129497 0.00734788 0.00401595 0.00227933 0.00441477 0.00982182 0.00733330 0.03936671 0.00403460 0.00350748 0.10285863 0.00360249 0.01186464 0.01571719 0.00142700 
0.02718678 0.05152319 0.00779026 0.00411782 0.00228730 0.00436427 0.00971055 0.00728438 0.03906549 0.00396731 0.00343721 0.10438481 0.00345120 0.01199735 0.01572896 0.00142352 
0.02809161 0.05172926 0.00824539 0.00421686 0.00229231 0.00430850 0.00961410 0.00723092 0.03874946 0.00389807 0.00337358 0.10591236 0.00330838 0.01213464 0.01575142 0.00141981 
0.02899510 0.05191305 0.00871187 0.00431271 0.00229438 0.00424766 0.00953283 0.00717316 0.03842050 0.00382710 0.00331687 0.10743727 0.00317445 0.01227580 0.01578416 0.00141591 
0.02989372 0.05207447 0.00918821 0.00440499 0.00229352 0.00418195 0.00946700 0.00711139 0.03808049 0.00375462 0.00326732 0.10895542 0.00304980 0.01242007 0.01582674 0.00141185 
0.03078402 0.05221354 0.00967285 0.00449337 0.00228977 0.00411160 0.00941675 0.00704587 0.03773128 0.00368085 0.00322512 0.11046263 0.00293479 0.01256666 0.01587863 0.00140764 
0.03166259 0.05233032 0.01016415 0.00457752 0.00228317 0.00403684 0.00938214 0.00697691 0.03737471 0.00360601 0.00319038 0.11195463 0.00282974 0.01271476 0.01593926 0.00140332 
0.03252610 0.05242494 0.01066040 0.00465713 0.00227379 0.00395796 0.00936311 0.00690478 0.03701259 0.00353033 0.00316321 0.11342714 0.00273492 0.01286355 0.01600802 0.00139891 
0.03337133 0.05249758 0.01115986 0.00473190 0.00226168 0.00387523 0.00935949 0.00682978 0.03664666 0.00345402 0.00314362 0.11487584 0.00265058 0.01301216 0.01608425 0.00139445 
0.03419513 0.05254852 0.01166072 0.00480156 0.00224693 0.00378895 0.00937104 0.00675223 0.03627864 0.00337729 0.00313162 0.11629644 0.00257692 0.01315973 0.01616726 0.00138995 
0.03499448 0.05257805 0.01216113 0.00486587 0.00222962 0.00369945 0.00939739 0.00667241 0.03591014 0.00330034 0.00312712 0.11768469 0.00251411 0.01330538 0.01625632 0.00138544 
0.03576647 0.05258655 0.01265922 0.00492460 0.00220983 0.00360706 0.00943810 0.00659064 0.03554273 0.00322339 0.00313002 0.11903640 0.00246226 0.01344826 0.01635066 0.00138095 
0.03650833 0.05257442 0.01315309 0.00497753 0.00218767 0.00351210 0.00949264 0.00650721 0.03517790 0.00314663 0.00314016 0.12034744 0.00242145 0.01358748 0.01644952 0.00137649 
0.03721743 0.05254216 0.01364086 0.00502450 0.00216325 0.00341494 0.00956037 0.00642241 0.03481704 0.00307025 0.00315733 0.12161384 0.00239172 0.01372219 0.01655208 0.00137210 
0.03789130 0.05249027 0.01412061 0.00506535 0.00213668 0.00331594 0.00964061 0.00633653 0.03446145 0.00299444 0.00318128 0.12283171 0.00237305 0.01385155 0.01665754 0.00136779 
0.03852763 0.05241933 0.01459047 0.00509994 0.00210807 0.00321546 0.00973256 0.00624986 0.03411234 0.00291938 0.00321172 0.12399737 0.00236539 0.01397473 0.01676509 0.00136357 
0.03912426 0.05232995 0.01504856 0.00512817 0.00207756 0.00311386 0.00983539 0.00616267 0.03377080 0.00284523 0.00324833 0.12510731 0.00236865 0.01409094 0.01687389 0.00135947 
0.03967923 0.05222280 0.01549307 0.00514998 0.00204525 0.00301152 0.00994819 0.00607523 0.03343785 0.00277216 0.00329073 0.12615821 0.00238268 0.01419941 0.01698313 0.00135551 
0.04019074 0.05209857 0.01592219 0.00516531 0.00201129 0.00290881 0.01006999 0.00598779 0.03311436 0.00270033 0.00333852 0.12714701 0.00240732 0.01429941 0.01709199 0.00135170 
0.04065719 0.05195799 0.01633421 0.00517414 0.00197581 0.00280610 0.01019978 0.00590060 0.03280112 0.00262989 0.00339127 0.12807088 0.00244233 0.01439026 0.01719969 0.00134805 
0.04107717 0.05180186 0.01672745 0.00517648 0.00193894 0.00270375 0.01033650 0.00581388 0.03249881 0.00256097 0.00344852 0.12892727 0.00248747 0.01447131 0.01730543 0.00134458 
0.04144947 0.05163098 0.01710032 0.00517236 0.00190081 0.00260212 0.01047906 0.00572787 0.03220798 0.00249372 0.00350978 0.12971392 0.00254243 0.01454195 0.01740846 0.00134130 
0.04177306 0.05144618 0.01745131 0.00516184 0.00186157 0.00250157 0.01062634 0.00564275 0.03192910 0.00242825 0.00357454 0.13042887 0.00260687 0.01460165 0.01750803 0.00133821 
0.04204713 0.05124836 0.01777901 0.00514502 0.00182136 0.00240243 0.01077720 0.00555874 0.03166251 0.00236469 0.00364230 0.13107048 0.00268042 0.01464992 0.01760345 0.00133533 
0.04227108 0.05103839 0.01808210 0.00512199 0.00178030 0.00230504 0.01093048 0.00547600 0.03140848 0.00230313 0.00371249 0.13163746 0.00276268 0.01468633 0.01769403 0.00133266 
0.04244448 0.05081722 0.01835937 0.00509290 0.00173854 0.00220972 0.01108503 0.00539471 0.03116714 0.00224369 0.00378459 0.13212883 0.00285321 0.01471050 0.01777915 0.00133020 
0.04256714 0.05058578 0.01860974 0.00505792 0.00169621 0.00211677 0.01123969 0.00531501 0.03093856 0.00218644 0.00385802 0.13254398 0.00295154 0.01472213 0.01785820 0.00132797 
0.04263906 0.05034505 0.01883225 0.00501723 0.00165344 0.00202648 0.01139331 0.00523705 0.03072272 0.00213149 0.00393224 0.13288265 0.00305718 0.01472097 0.01793064 0.00132596 
0.04266043 0.05009598 0.01902606 0.00497103 0.00161038 0.00193913 0.01154477 0.00516095 0.03051951 0.00207889 0.00400670 0.13314494 0.00316961 0.01470686 0.01799596 0.00132417 
0.04263167 0.04983959 0.01919047 0.00491957 0.00156716 0.00185498 0.01169295 0.00508682 0.03032875 0.00202873 0.00408082 0.13333133 0.00328827 0.01467968 0.01805370 0.00132260 
0.04255336 0.04957687 0.01932492 0.00486308 0.00152389 0.00177425 0.01183679 0.00501476 0.03015020 0.00198107 0.00415409 0.13344261 0.00341262 0.01463940 0.01810345 0.00132126 
0.04242632 0.04930881 0.01942901 0.00480183 0.00148071 0.00169716 0.01197525 0.00494485 0.02998354 0.00193595 0.00422595 0.13347998 0.00354206 0.01458604 0.01814486 0.00132014 
0.04225151 0.04903644 0.01950246 0.00473612 0.00143775 0.00162392 0.01210734 0.00487719 0.02982844 0.00189342 0.00429591 0.13344496 0.00367600 0.01451970 0.01817763 0.00131924 
0.04203011 0.04876074 0.01954514 0.00466623 0.00139512 0.00155470 0.01223212 0.00481183 0.02968449 0.00185352 0.00436345 0.13333942 0.00381382 0.01444055 0.01820151 0.00131855 
0.04176347 0.04848272 0.01955709 0.00459250 0.00135294 0.00148965 0.01234870 0.00474882 0.02955128 0.00181630 0.00442811 0.13316556 0.00395491 0.01434880 0.01821631 0.00131807 
0.04145310 0.04820336 0.01953848 0.00451523 0.00131134 0.00142890 0.01245626 0.00468823 0.02942835 0.00178176 0.00448943 0.13292589 0.00409864 0.01424477 0.01822190 0.00131779 
0.04110070 0.04792363 0.01948962 0.00443477 0.00127042 0.00137257 0.01255406 0.00463007 0.02931526 0.00174994 0.00454699 0.13262324 0.00424438 0.01412880 0.01821821 0.00131770 
0.04070810 0.04764450 0.01941100 0.00435147 0.00123030 0.00132074 0.01264140 0.00457440 0.02921153 0.00172085 0.00460041 0.13226072 0.00439150 0.01400132 0.01820520 0.00131780 
0.04027731 0.04736688 0.01930321 0.00426568 0.00119108 0.00127347 0.01271769 0.00452123 0.02911672 0.00169449 0.00464931 0.13184172 0.00453935 0.01386279 0.01818292 0.00131808 
0.03981046 0.04709169 0.01916700 0.00417775 0.00115287 0.00123080 0.01278239 0.00447059 0.02903039 0.00167087 0.00469337 0.13136986 0.00468732 0.01371376 0.01815147 0.00131853 
0.03930981 0.04681981 0.01900326 0.00408804 0.00111577 0.00119277 0.01283506 0.00442250 0.02895212 0.00164999 0.00473231 0.13084900 0.00483478 0.01355481 0.01811099 0.00131914 
0.03877775 0.04655208 0.01881300 0.00399692 0.00107988 0.00115937 0.01287535 0.00437697 0.02888153 0.00163184 0.00476587 0.13028321 0.00498113 0.01338658 0.01806169 0.00131991 
0.03821679 0.04628931 0.01859734 0.00390475 0.00104530 0.00113057 0.01290299 0.00433402 0.02881827 0.00161640 0.00479385 0.12967675 0.00512575 0.01320973 0.01800382 0.00132081 
0.03762952 0.04603228 0.01835753 0.00381189 0.00101212 0.00110633 0.01291779 0.00429365 0.02876206 0.00160366 0.00481606 0.12903402 0.00526807 0.01302500 0.01793769 0.00132185 
0.03701864 0.04578170 0.01809492 0.00371868 0.00098043 0.00108660 0.01291967 0.00425589 0.02871266 0.00159360 0.00483239 0.12835957 0.00540751 0.01283315 0.01786366 0.00132301 
0.03638692 0.04553828 0.01781097 0.00362550 0.00095032 0.00107130 0.01290862 0.00422074 0.02866989 0.00158620 0.00484275 0.12765805 0.00554352 0.01263496 0.01778214 0.00132427 
0.03573717 0.04530264 0.01750722 0.00353266 0.00092189 0.00106033 0.01288475 0.00418822 0.02863363 0.00158141 0.00484708 0.12693419 0.00567559 0.01243127 0.01769358 0.00132564 
0.03507230 0.04507537 0.01718527 0.00344052 0.00089520 0.00105357 0.01284823 0.00415835 0.02860385 0.00157922 0.00484539 0.12619278 0.00580319 0.01222292 0.01759847 0.00132709 
0.03439522 0.04485701 0.01684682 0.00334938 0.00087035 0.00105089 0.01279933 0.00413115 0.02858059 0.00157958 0.00483772 0.12543864 0.00592585 0.01201078 0.01749736 0.00132862 
0.03370888 0.04464804 0.01649362 0.00325957 0.00084742 0.00105216 0.01273843 0.00410664 0.02856394 0.00158245 0.00482415 0.12467659 0.00604313 0.01179574 0.01739081 0.00133022 
0.03301626 0.04444890 0.01612745 0.00317138 0.00082647 0.00105721 0.01266595 0.00408486 0.02855411 0.00158779 0.00480479 0.12391144 0.00615459 0.01157870 0.01727945 0.00133186 
0.03232031 0.04425996 0.01575015 0.00308509 0.00080760 0.00106589 0.01258244 0.00406583 0.02855137 0.00159555 0.00477981 0.12314793 0.00625984 0.01136056 0.01716392 0.00133355 
0.03162400 0.04408154 0.01536358 0.00300099 0.00079086 0.00107800 0.01248849 0.00404960 0.02855606 0.00160569 0.00474941 0.12239075 0.00635853 0.01114224 0.01704490 0.00133527 
0.03093026 0.04391391 0.01496959 0.00291931 0.00077633 0.00109337 0.01238479 0.00403620 0.02856861 0.00161815 0.00471382 0.12164450 0.00645033 0.01092464 0.01692308 0.00133701 
0.03024197 0.04375727 0.01457007 0.00284030 0.00076408 0.00111179 0.01227211 0.00402569 0.02858952 0.00163287 0.00467332 0.12091363 0.00653494 0.01070869 0.01679920 0.00133876 
0.02956197 0.04361179 0.01416687 0.00276418 0.00075417 0.00113307 0.01215125 0.00401812 0.02861937 0.00164980 0.00462820 0.12020248 0.00661211 0.01049527 0.01667401 0.00134050 
0.02889305 0.04347756 0.01376183 0.00269114 0.00074666 0.00115701 0.01202311 0.00401353 0.02865882 0.00166888 0.00457879 0.11951523 0.00668163 0.01028527 0.01654828 0.00134223 
0.02823790 0.04335463 0.01335678 0.00262137 0.00074162 0.00118338 0.01188863 0.00401200 0.02870855 0.00169005 0.00452546 0.11885587 0.00674330 0.01007957 0.01642278 0.00134393 
0.02759913 0.04324301 0.01295348 0.00255504 0.00073909 0.00121198 0.01174881 0.00401359 0.02876934 0.00171324 0.00446859 0.11822821 0.00679699 0.00987901 0.01629831 0.00134560 
0.02697926 0.04314264 0.01255364 0.00249228 0.00073914 0.00124260 0.01160467 0.00401837 0.02884200 0.00173839 0.00440860 0.11763584 0.00684260 0.00968444 0.01617568 0.00134722 
0.02638068 0.04305342 0.01215893 0.00243322 0.00074181 0.00127502 0.01145731 0.00402640 0.02892739 0.00176544 0.00434590 0.11708212 0.00688005 0.00949665 0.01605568 0.00134878 
0.02580567 0.04297520 0.01177094 0.00237796 0.00074715 0.00130903 0.01130782 0.00403775 0.02902639 0.00179432 0.00428095 0.11657019 0.00690932 0.00931643 0.01593914 0.00135027 
0.02525637 0.04290781 0.01139117 0.00232660 0.00075519 0.00134442 0.01115735 0.00405251 0.02913991 0.00182495 0.00421421 0.11610293 0.00693043 0.00914453 0.01582685 0.00135169 
0.02473480 0.04285101 0.01102106 0.00227919 0.00076598 0.00138098 0.01100704 0.00407074 0.02926889 0.00185726 0.00414613 0.11568296 0.00694342 0.00898167 0.01571961 0.00135301 
0.02424280 0.04280453 0.01066193 0.00223579 0.00077954 0.00141853 0.01085807 0.00409251 0.02941424 0.00189119 0.00407722 0.11531265 0.00694838 0.00882852 0.01561822 0.00135424 
0.02378207 0.04276808 0.01031501 0.00219642 0.00079591 0.00145685 0.01071161 0.00411789 0.02957689 0.00192666 0.00400793 0.11499408 0.00694545 0.00868574 0.01552346 0.00135535 
0.02335413 0.04274132 0.00998142 0.00216110 0.00081509 0.00149577 0.01056881 0.00414694 0.02975773 0.00196359 0.00393877 0.11472906 0.00693479 0.00855393 0.01543609 0.00135634 
0.02296035 0.04272389 0.00966220 0.00212982 0.00083712 0.00153510 0.01043085 0.00417973 0.02995764 0.00200192 0.00387020 0.11451912 0.00691660 0.00843367 0.01535687 0.00135720 
0.02260189 0.04271540 0.00935823 0.00210255 0.00086200 0.00157467 0.01029886 0.00421630 0.03017743 0.00204156 0.00380271 0.11436552 0.00689113 0.00832549 0.01528651 0.00135793 
0.02227977 0.04271543 0.00907030 0.00207926 0.00088972 0.00161432 0.01017395 0.00425670 0.03041789 0.00208245 0.00373676 0.11426923 0.00685864 0.00822988 0.01522571 0.00135850 
0.02199479 0.04272355 0.00879908 0.00205990 0.00092029 0.00165390 0.01005721 0.00430098 0.03067971 0.00212449 0.00367280 0.11423093 0.00681946 0.00814729 0.01517516 0.00135891 
0.02174758 0.04273930 0.00854512 0.00204439 0.00095369 0.00169325 0.00994969 0.00434914 0.03096351 0.00216762 0.00361129 0.11425105 0.00677392 0.00807813 0.01513549 0.00135916 
0.02153856 0.04276221 0.00830884 0.00203266 0.00098990 0.00173226 0.00985239 0.00440122 0.03126984 0.00221175 0.00355264 0.11432971 0.00672241 0.00802277 0.01510731 0.00135923 
0.02136799 0.04279179 0.00809056 0.00202461 0.00102889 0.00177079 0.00976625 0.00445720 0.03159913 0.00225682 0.00349726 0.11446680 0.00666532 0.00798153 0.01509119 0.00135911 
0.02123591 0.04282755 0.00789046 0.00202013 0.00107063 0.00180873 0.00969218 0.00451709 0.03195170 0.00230273 0.00344553 0.11466193 0.00660310 0.00795468 0.01508767 0.00135879 
0.02114219 0.04286896 0.00770861 0.00201912 0.00111507 0.00184599 0.00963100 0.00458084 0.03232775 0.00234941 0.00339781 0.11491446 0.00653621 0.00794249 0.01509723 0.00135828 
0.02108651 0.04291552 0.00754498 0.00202144 0.00116215 0.00188247 0.00958346 0.00464843 0.03272736 0.00239678 0.00335443 0.11522349 0.00646514 0.00794513 0.01512032 0.00135755 
0.02106836 0.04296667 0.00739941 0.00202696 0.00121182 0.00191810 0.00955027 0.00471977 0.03315047 0.00244476 0.00331568 0.11558791 0.00639041 0.00796278 0.01515734 0.00135660 
0.02108708 0.04302190 0.00727167 0.00203555 0.00126398 0.00195281 0.00953201 0.00479480 0.03359686 0.00249327 0.00328183 0.11600635 0.00631255 0.00799556 0.01520863 0.00135542 
0.02114179 0.04308066 0.00716139 0.00204704 0.00131857 0.00198655 0.00952923 0.00487342 0.03406617 0.00254223 0.00325313 0.11647726 0.00623214 0.00804353 0.01527450 0.00135401 
0.02123149 0.04314239 0.00706813 0.00206130 0.00137548 0.00201926 0.00954234 0.00495551 0.03455787 0.00259155 0.00322977 0.11699886 0.00614973 0.00810675 0.01535518 0.00135235 
0.02135500 0.04320654 0.00699137 0.00207816 0.00143461 0.00205092 0.00957171 0.00504092 0.03507130 0.00264116 0.00321192 0.11756919 0.00606594 0.00818521 0.01545085 0.00135045 
0.02151098 0.04327255 0.00693049 0.00209746 0.00149585 0.00208149 0.00961759 0.00512950 0.03560558 0.00269098 0.00319970 0.11818608 0.00598137 0.00827888 0.01556166 0.00134830 
0.02169797 0.04333984 0.00688483 0.00211904 0.00155907 0.00211097 0.00968012 0.00522106 0.03615972 0.00274091 0.00319321 0.11884722 0.00589664 0.00838769 0.01568766 0.00134588 
0.02191437 0.04340785 0.00685363 0.00214274 0.00162414 0.00213935 0.00975937 0.00531541 0.03673253 0.00279089 0.00319250 0.11955013 0.00581238 0.00851153 0.01582887 0.00134320 
0.02215846 0.04347600 0.00683610 0.00216838 0.00169092 0.00216664 0.00985531 0.00541232 0.03732264 0.00284082 0.00319758 0.12029220 0.00572924 0.00865027 0.01598523 0.00134025 
0.02242839 0.04354369 0.00683140 0.00219581 0.00175924 0.00219283 0.00996779 0.00551154 0.03792854 0.00289063 0.00320844 0.12107066 0.00564786 0.00880372 0.01615661 0.00133703 
0.02272225 0.04361034 0.00683864 0.00222485 0.00182894 0.00221795 0.01009657 0.00561281 0.03854856 0.00294024 0.00322500 0.12188264 0.00556889 0.00897167 0.01634285 0.00133354 
0.02303800 0.04367534 0.00685692 0.00225535 0.00189986 0.00224203 0.01024131 0.00571584 0.03918083 0.00298955 0.00324717 0.12272517 0.00549298 0.00915389 0.01654368 0.00132976 
0.02337355 0.04373809 0.00688530 0.00228715 0.00197182 0.00226509 0.01040159 0.00582033 0.03982338 0.00303849 0.00327481 0.12359517 0.00542077 0.00935010 0.01675881 0.00132571 
0.02372675 0.04379796 0.00692285 0.00232008 0.00204461 0.00228718 0.01057685 0.00592596 0.04047405 0.00308697 0.00330775 0.12448950 0.00535291 0.00955999 0.01698784 0.00132138 
0.02409539 0.04385434 0.00696862 0.00235399 0.00211805 0.00230834 0.01076649 0.00603238 0.04113056 0.00313491 0.00334577 0.12540492 0.00529002 0.00978324 0.01723035 0.00131677 
0.02447721 0.04390658 0.00702167 0.00238874 0.00219193 0.00232860 0.01096977 0.00613924 0.04179050 0.00318223 0.00338863 0.12633819 0.00523273 0.01001947 0.01748581 0.00131188 
0.02486997 0.04395404 0.00708109 0.00242416 0.00226605 0.00234802 0.01118589 0.00624618 0.04245133 0.00322884 0.00343606 0.12728597 0.00518166 0.01026829 0.01775366 0.00130672 
0.02527136 0.04399607 0.00714597 0.00246014 0.00234018 0.00236666 0.01141396 0.00635281 0.04311041 0.00327465 0.00348775 0.12824493 0.00513738 0.01052928 0.01803326 0.00130129 
0.02567912 0.04403201 0.00721545 0.00249651 0.00241411 0.00238456 0.01165300 0.00645873 0.04376502 0.00331959 0.00354336 0.12921171 0.00510048 0.01080199 0.01832391 0.00129558 
0.02609098 0.04406120 0.00728869 0.00253317 0.00248762 0.00240179 0.01190197 0.00656355 0.04441232 0.00336357 0.00360254 0.13018295 0.00507151 0.01108593 0.01862485 0.00128962 
0.02650469 0.04408296 0.00736491 0.00256997 0.00256047 0.00241840 0.01215974 0.00666686 0.04504944 0.00340651 0.00366489 0.13115529 0.00505100 0.01138060 0.01893528 0.00128340 
0.02691807 0.04409663 0.00744337 0.00260681 0.00263245 0.00243444 0.01242512 0.00676825 0.04567342 0.00344832 0.00373001 0.13212540 0.00503945 0.01168547 0.01925430 0.00127693 
0.02732894 0.04410153 0.00752338 0.00264357 0.00270332 0.00244997 0.01269689 0.00686730 0.04628130 0.00348891 0.00379746 0.13308997 0.00503732 0.01199998 0.01958101 0.00127022 
0.02773523 0.04409698 0.00760433 0.00268013 0.00277285 0.00246506 0.01297375 0.00696360 0.04687008 0.00352822 0.00386680 0.13404575 0.00504506 0.01232353 0.01991441 0.00126328 
0.02813490 0.04408233 0.00768566 0.00271641 0.00284081 0.00247974 0.01325435 0.00705674 0.04743676 0.00356615 0.00393758 0.13498951 0.00506306 0.01265551 0.02025348 0.00125613 
0.02852600 0.04405691 0.00776688 0.00275230 0.00290699 0.00249408 0.01353732 0.00714632 0.04797834 0.00360263 0.00400932 0.13591813 0.00509170 0.01299529 0.02059716 0.00124877 
0.02890668 0.04402008 0.00784759 0.00278772 0.00297117 0.00250813 0.01382125 0.00723193 0.04849187 0.00363758 0.00408154 0.13682853 0.00513129 0.01334221 0.02094432 0.00124122 
0.02927518 0.04397122 0.00792743 0.00282258 0.00303312 0.00252193 0.01410473 0.00731320 0.04897444 0.00367091 0.00415375 0.13771772 0.00518212 0.01369556 0.02129382 0.00123349 
0.02962982 0.04390973 0.00800613 0.00285681 0.00309263 0.00253552 0.01438630 0.00738975 0.04942321 0.00370256 0.00422547 0.13858283 0.00524442 0.01405464 0.02164448 0.00122561 
0.02996905 0.04383503 0.00808352 0.00289034 0.00314951 0.00254895 0.01466451 0.00746122 0.04983542 0.00373244 0.00429621 0.13942106 0.00531837 0.01441872 0.02199509 0.00121758 
0.03029144 0.04374660 0.00815946 0.00292310 0.00320356 0.00256226 0.01493793 0.00752728 0.05020842 0.00376049 0.00436549 0.14022975 0.00540412 0.01478704 0.02234441 0.00120943 
0.03059566 0.04364394 0.00823393 0.00295503 0.00325459 0.00257547 0.01520511 0.00758762 0.05053966 0.00378663 0.00443283 0.14100635 0.00550175 0.01515881 0.02269119 0.00120117 
0.03088050 0.04352661 0.00830694 0.00298608 0.00330244 0.00258862 0.01546463 0.00764194 0.05082674 0.00381079 0.00449776 0.14174846 0.00561130 0.01553323 0.02303418 0.00119283 
0.03114489 0.04339422 0.00837860 0.00301620 0.00334694 0.00260172 0.01571511 0.00768998 0.05106743 0.00383292 0.00455982 0.14245381 0.00573274 0.01590949 0.02337210 0.00118444 
0.03138786 0.04324647 0.00844909 0.00304536 0.00338793 0.00261481 0.01595519 0.00773151 0.05125962 0.00385295 0.00461857 0.14312027 0.00586601 0.01628674 0.02370368 0.00117600 
0.03160860 0.04308310 0.00851863 0.00307350 0.00342529 0.00262789 0.01618355 0.00776631 0.05140144 0.00387082 0.00467359 0.14374589 0.00601095 0.01666412 0.02402764 0.00116755 
0.03180640 0.04290396 0.00858753 0.00310059 0.00345889 0.00264098 0.01639894 0.00779421 0.05149117 0.00388648 0.00472448 0.14432887 0.00616739 0.01704077 0.02434274 0.00115912 
0.03198067 0.04270898 0.00865612 0.00312662 0.00348863 0.00265408 0.01660013 0.00781509 0.05152734 0.00389988 0.00477084 0.14486758 0.00633508 0.01741579 0.02464772 0.00115072 
0.03213096 0.04249817 0.00872481 0.00315154 0.00351441 0.00266719 0.01678600 0.00782883 0.05150866 0.00391098 0.00481233 0.14536059 0.00651370 0.01778829 0.02494137 0.00114238 
0.03225693 0.04227168 0.00879404 0.00317534 0.00353617 0.00268031 0.01695547 0.00783537 0.05143412 0.00391973 0.00484862 0.14580662 0.00670290 0.01815734 0.02522250 0.00113414 
0.03235836 0.04202976 0.00886429 0.00319801 0.00355384 0.00269344 0.01710756 0.00783469 0.05130292 0.00392610 0.00487940 0.14620461 0.00690224 0.01852205 0.02548994 0.00112601 
0.03243514 0.04177278 0.00893607 0.00321953 0.00356740 0.00270657 0.01724135 0.00782681 0.05111452 0.00393006 0.00490440 0.14655368 0.00711125 0.01888146 0.02574258 0.00111803 
0.03248725 0.04150125 0.00900993 0.00323989 0.00357681 0.00271967 0.01735604 0.00781177 0.05086867 0.00393158 0.00492339 0.14685315 0.00732939 0.01923467 0.02597935 0.00111022 
0.03251480 0.04121580 0.00908641 0.00325907 0.00358207 0.00273274 0.01745090 0.00778967 0.05056534 0.00393066 0.00493616 0.14710254 0.00755607 0.01958074 0.02619923 0.00110261 
0.03251799 0.04091723 0.00916607 0.00327709 0.00358321 0.00274575 0.01752530 0.00776066 0.05020480 0.00392728 0.00494255 0.14730158 0.00779065 0.01991873 0.02640126 0.00109523 
0.03249708 0.04060646 0.00924949 0.00329394 0.00358026 0.00275867 0.01757873 0.00772490 0.04978759 0.00392143 0.00494241 0.14745019 0.00803242 0.02024772 0.02658453 0.00108811 
0.03245245 0.04028460 0.00933723 0.00330961 0.00357328 0.00277149 0.01761079 0.00768262 0.04931453 0.00391313 0.00493566 0.14754852 0.00828064 0.02056680 0.02674822 0.00108128 
0.03238453 0.03995288 0.00942983 0.00332412 0.00356233 0.00278416 0.01762117 0.00763408 0.04878670 0.00390238 0.00492224 0.14759690 0.00853452 0.02087506 0.02689157 0.00107475 
0.03229384 0.03961273 0.00952783 0.00333747 0.00354751 0.00279666 0.01760968 0.00757956 0.04820547 0.00388919 0.00490211 0.14759589 0.00879323 0.02117159 0.02701389 0.00106856 
0.03218094 0.03926571 0.00963172 0.00334968 0.00352892 0.00280895 0.01757624 0.00751941 0.04757248 0.00387361 0.00487531 0.14754623 0.00905589 0.02145554 0.02711461 0.00106273 
0.03204646 0.03891358 0.00974198 0.00336075 0.00350669 0.00282100 0.01752091 0.00745400 0.04688962 0.00385565 0.00484188 0.14744888 0.00932159 0.02172603 0.02719319 0.00105729 
0.03189106 0.03855824 0.00985903 0.00337069 0.00348097 0.00283277 0.01744384 0.00738372 0.04615907 0.00383536 0.00480192 0.14730498 0.00958938 0.02198224 0.02724923 0.00105227 
0.03171546 0.03820175 0.00998326 0.00337954 0.00345190 0.00284423 0.01734530 0.00730903 0.04538324 0.00381280 0.00475555 0.14711588 0.00985831 0.02222337 0.02728239 0.00104768 
0.03152040 0.03784637 0.01011498 0.00338730 0.00341967 0.00285533 0.01722567 0.00723037 0.04456478 0.00378801 0.00470295 0.14688310 0.01012737 0.02244863 0.02729245 0.00104354 
0.03130665 0.03749447 0.01025447 0.00339400 0.00338446 0.00286603 0.01708545 0.00714825 0.04370660 0.00376107 0.00464430 0.14660834 0.01039554 0.02265730 0.02727926 0.00103988 
0.03107499 0.03714860 0.01040193 0.00339966 0.00334646 0.00287630 0.01692525 0.00706318 0.04281180 0.00373205 0.00457984 0.14629348 0.01066181 0.02284866 0.02724281 0.00103671 
0.03082625 0.03681144 0.01055750 0.00340431 0.00330588 0.00288610 0.01674578 0.00697571 0.04188371 0.00370102 0.00450983 0.14594055 0.01092515 0.02302207 0.02718315 0.00103404 
0.03056122 0.03648583 0.01072124 0.00340798 0.00326296 0.00289540 0.01654787 0.00688639 0.04092584 0.00366809 0.00443458 0.14555174 0.01118450 0.02317691 0.02710046 0.00103191 
0.03028073 0.03617472 0.01089312 0.00341069 0.00321791 0.00290414 0.01633243 0.00679579 0.03994187 0.00363333 0.00435441 0.14512937 0.01143884 0.02331261 0.02699501 0.00103031 
0.02998558 0.03588116 0.01107306 0.00341249 0.00317097 0.00291231 0.01610047 0.00670450 0.03893566 0.00359687 0.00426967 0.14467591 0.01168715 0.02342866 0.02686716 0.00102925 
0.02967660 0.03560834 0.01126088 0.00341341 0.00312239 0.00291987 0.01585310 0.00661310 0.03791118 0.00355880 0.00418074 0.14419393 0.01192841 0.02352461 0.02671741 0.00102876 
0.02935459 0.03535951 0.01145632 0.00341348 0.00307242 0.00292678 0.01559149 0.00652221 0.03687256 0.00351925 0.00408802 0.14368608 0.01216162 0.02360004 0.02654632 0.00102882 
0.02902034 0.03513800 0.01165903 0.00341275 0.00302130 0.00293301 0.01531693 0.00643240 0.03582399 0.00347834 0.00399193 0.14315515 0.01238583 0.02365464 0.02635456 0.00102945 
0.02867463 0.03494722 0.01186859 0.00341125 0.00296929 0.00293854 0.01503073 0.00634428 0.03476976 0.00343620 0.00389291 0.14260395 0.01260009 0.02368810 0.02614289 0.00103065 
0.02831823 0.03479058 0.01208448 0.00340905 0.00291665 0.00294335 0.01473431 0.00625843 0.03371421 0.00339296 0.00379141 0.14203539 0.01280352 0.02370024 0.02591219 0.00103241 
0.02795190 0.03467154 0.01230611 0.00340617 0.00286362 0.00294741 0.01442911 0.00617543 0.03266174 0.00334876 0.00368790 0.14145237 0.01299525 0.02369090 0.02566338 0.00103474 
0.02757637 0.03459357 0.01253279 0.00340268 0.00281045 0.00295070 0.01411664 0.00609584 0.03161672 0.00330376 0.00358287 0.14085786 0.01317448 0.02366001 0.02539751 0.00103762 
0.02719237 0.03456008 0.01276378 0.00339863 0.00275739 0.00295321 0.01379845 0.00602019 0.03058353 0.00325808 0.00347679 0.14025481 0.01334045 0.02360758 0.02511568 0.00104106 
0.02680062 0.03457448 0.01299824 0.00339407 0.00270469 0.00295492 0.01347613 0.00594902 0.02956653 0.00321190 0.00337015 0.13964616 0.01349247 0.02353366 0.02481907 0.00104504 
0.02640181 0.03464010 0.01323527 0.00338905 0.00265256 0.00295583 0.01315126 0.00588281 0.02857001 0.00316535 0.00326346 0.13903483 0.01362991 0.02343841 0.02450893 0.00104954 
0.02599663 0.03476019 0.01347390 0.00338365 0.00260123 0.00295593 0.01282549 0.00582203 0.02759816 0.00311860 0.00315719 0.13842367 0.01375220 0.02332204 0.02418659 0.00105456 
0.02558579 0.03493789 0.01371309 0.00337792 0.00255092 0.00295521 0.01250043 0.00576711 0.02665510 0.00307181 0.00305184 0.13781549 0.01385886 0.02318485 0.02385340 0.00106007 
0.02516995 0.03517621 0.01395176 0.00337193 0.00250184 0.00295368 0.01217771 0.00571846 0.02574481 0.00302513 0.00294790 0.13721299 0.01394945 0.02302720 0.02351078 0.00106607 
0.02474980 0.03547801 0.01418877 0.00336574 0.00245416 0.00295135 0.01185896 0.00567643 0.02487110 0.00297872 0.00284583 0.13661880 0.01402364 0.02284953 0.02316021 0.00107251 
0.02432603 0.03584596 0.01442292 0.00335943 0.00240808 0.00294821 0.01154579 0.00564135 0.02403765 0.00293274 0.00274610 0.13603539 0.01408117 0.02265236 0.02280318 0.00107940 
0.02389934 0.03628256 0.01465301 0.00335306 0.00236375 0.00294429 0.01123976 0.00561350 0.02324793 0.00288735 0.00264916 0.13546513 0.01412187 0.02243628 0.02244120 0.00108669 
0.02347043 0.03679007 0.01487777 0.00334670 0.00232132 0.00293960 0.01094242 0.00559312 0.02250519 0.00284270 0.00255545 0.13491021 0.01414563 0.02220195 0.02207583 0.00109436 
0.02304003 0.03737051 0.01509592 0.00334044 0.00228093 0.00293416 0.01065529 0.00558038 0.02181246 0.00279895 0.00246537 0.13437269 0.01415246 0.02195008 0.02170863 0.00110239 
0.02260890 0.03802564 0.01530619 0.00333435 0.00224269 0.00292799 0.01037980 0.00557545 0.02117252 0.00275623 0.00237933 0.13385440 0.01414242 0.02168149 0.02134115 0.00111075 
0.02217779 0.03875694 0.01550726 0.00332850 0.00220672 0.00292112 0.01011737 0.00557840 0.02058791 0.00271471 0.00229770 0.13335702 0.01411570 0.02139702 0.02097495 0.00111939 
0.02174753 0.03956560 0.01569784 0.00332297 0.00217309 0.00291357 0.00986931 0.00558929 0.02006086 0.00267451 0.00222083 0.13288198 0.01407254 0.02109760 0.02061158 0.00112831 
0.02131894 0.04045248 0.01587665 0.00331784 0.00214187 0.00290539 0.00963691 0.00560811 0.01959332 0.00263578 0.00214905 0.13243053 0.01401327 0.02078421 0.02025256 0.00113745 
0.02089291 0.04141811 0.01604239 0.00331319 0.00211312 0.00289660 0.00942135 0.00563482 0.01918696 0.00259864 0.00208265 0.13200367 0.01393832 0.02045789 0.01989940 0.00114679 
0.02047035 0.04246270 0.01619384 0.00330910 0.00208687 0.00288725 0.00922373 0.00566930 0.01884309 0.00256321 0.00202190 0.13160217 0.01384818 0.02011973 0.01955356 0.00115630 
0.02005225 0.04358605 0.01632977 0.00330564 0.00206313 0.00287737 0.00904507 0.00571141 0.01856275 0.00252962 0.00196705 0.13122653 0.01374344 0.01977086 0.01921645 0.00116593 
0.01963961 0.04478765 0.01644901 0.00330290 0.00204193 0.00286701 0.00888631 0.00576096 0.01834663 0.00249797 0.00191831 0.13087703 0.01362475 0.01941247 0.01888946 0.00117566 
0.01923351 0.04606657 0.01655043 0.00330095 0.00202323 0.00285622 0.00874827 0.00581769 0.01819507 0.00246837 0.00187586 0.13055369 0.01349283 0.01904577 0.01857388 0.00118545 
0.01883507 0.04742153 0.01663297 0.00329987 0.00200702 0.00284503 0.00863169 0.00588132 0.01810811 0.00244090 0.00183984 0.13025625 0.01334847 0.01867203 0.01827099 0.00119527 
0.01844548 0.04885084 0.01669561 0.00329972 0.00199326 0.00283352 0.00853718 0.00595152 0.01808544 0.00241565 0.00181037 0.12998420 0.01319253 0.01829252 0.01798195 0.00120509 
0.01806598 0.05035242 0.01673741 0.00330059 0.00198189 0.00282172 0.00846528 0.00602793 0.01812641 0.00239269 0.00178754 0.12973678 0.01302591 0.01790856 0.01770788 0.00121486 
0.01769787 0.05192383 0.01675752 0.00330253 0.00197284 0.00280968 0.00841639 0.00611012 0.01823006 0.00237210 0.00177140 0.12951296 0.01284957 0.01752147 0.01744978 0.00122456 
0.01734252 0.05356220 0.01675515 0.00330562 0.00196603 0.00279747 0.00839082 0.00619766 0.01839508 0.00235392 0.00176197 0.12931146 0.01266452 0.01713261 0.01720861 0.00123416 
0.01700133 0.05526433 0.01672961 0.00330992 0.00196138 0.00278512 0.00838876 0.00629007 0.01861986 0.00233820 0.00175924 0.12913076 0.01247180 0.01674331 0.01698521 0.00124363 
0.01667578 0.05702659 0.01668031 0.00331547 0.00195879 0.00277271 0.00841028 0.00638685 0.01890249 0.00232498 0.00176318 0.12896908 0.01227248 0.01635493 0.01678031 0.00125293 
0.01636740 0.05884503 0.01660673 0.00332235 0.00195815 0.00276029 0.00845537 0.00648746 0.01924074 0.00231428 0.00177370 0.12882441 0.01206767 0.01596883 0.01659458 0.00126204 
0.01607777 0.06071531 0.01650848 0.00333058 0.00195935 0.00274790 0.00852387 0.00659135 0.01963212 0.00230612 0.00179070 0.12869453 0.01185848 0.01558633 0.01642855 0.00127093 
0.01580852 0.06263279 0.01638526 0.00334023 0.00196227 0.00273560 0.00861554 0.00669795 0.02007385 0.00230051 0.00181407 0.12857700 0.01164605 0.01520877 0.01628267 0.00127959 
0.01556132 0.06459247 0.01623688 0.00335131 0.00196679 0.00272345 0.00873002 0.00680667 0.02056294 0.00229744 0.00184363 0.12846919 0.01143151 0.01483745 0.01615726 0.00128797 
0.01533789 0.06658905 0.01606326 0.00336388 0.00197277 0.00271149 0.00886685 0.00691691 0.02109612 0.00229688 0.00187921 0.12836827 0.01121598 0.01447363 0.01605256 0.00129607 
0.01513997 0.06861697 0.01586443 0.00337794 0.00198010 0.00269978 0.00902546 0.00702807 0.02166993 0.00229883 0.00192059 0.12827126 0.01100060 0.01411858 0.01596867 0.00130386 
0.01496933 0.07067037 0.01564053 0.00339351 0.00198863 0.00268837 0.00920519 0.00713954 0.02228073 0.00230324 0.00196756 0.12817503 0.01078647 0.01377347 0.01590559 0.00131132 
0.01482777 0.07274318 0.01539182 0.00341061 0.00199825 0.00267730 0.00940527 0.00725071 0.02292469 0.00231007 0.00201984 0.12807630 0.01057466 0.01343949 0.01586322 0.00131845 
0.01471709 0.07482908 0.01511866 0.00342925 0.00200882 0.00266661 0.00962487 0.00736098 0.02359784 0.00231927 0.00207718 0.12797170 0.01036625 0.01311772 0.01584132 0.00132521 
0.01463910 0.07692161 0.01482155 0.00344940 0.00202022 0.00265635 0.00986305 0.00746975 0.02429610 0.00233077 0.00213927 0.12785777 0.01016223 0.01280922 0.01583958 0.00133161 
0.01459561 0.07901411 0.01450106 0.00347108 0.00203232 0.00264656 0.01011879 0.00757644 0.02501528 0.00234449 0.00220581 0.12773097 0.00996359 0.01251498 0.01585756 0.00133764 
0.01458841 0.08109980 0.01415791 0.00349424 0.00204501 0.00263727 0.01039100 0.00768048 0.02575114 0.00236036 0.00227647 0.12758773 0.00977126 0.01223593 0.01589472 0.00134328 
0.01461928 0.08317181 0.01379290 0.00351887 0.00205817 0.00262851 0.01067852 0.00778132 0.02649938 0.00237830 0.00235092 0.12742446 0.00958610 0.01197291 0.01595041 0.00134852 
0.01468996 0.08522321 0.01340695 0.00354492 0.00207170 0.00262031 0.01098013 0.00787845 0.02725568 0.00239819 0.00242880 0.12723755 0.00940896 0.01172670 0.01602389 0.00135338 
0.01480213 0.08724701 0.01300106 0.00357236 0.00208549 0.00261270 0.01129455 0.00797136 0.02801576 0.00241995 0.00250977 0.12702346 0.00924057 0.01149799 0.01611432 0.00135783 
0.01495745 0.08923623 0.01257636 0.00360114 0.00209946 0.00260570 0.01162045 0.00805958 0.02877533 0.00244345 0.00259345 0.12677866 0.00908164 0.01128741 0.01622079 0.00136189 
0.01515750 0.09118393 0.01213403 0.00363118 0.00211352 0.00259932 0.01195645 0.00814267 0.02953021 0.00246859 0.00267947 0.12649974 0.00893279 0.01109548 0.01634227 0.00136556 
0.01540377 0.09308323 0.01167539 0.00366244 0.00212760 0.00259357 0.01230115 0.00822023 0.03027627 0.00249524 0.00276745 0.12618337 0.00879458 0.01092263 0.01647767 0.00136883 
0.01569771 0.09492735 0.01120179 0.00369482 0.00214161 0.00258847 0.01265312 0.00829190 0.03100952 0.00252327 0.00285703 0.12582636 0.00866749 0.01076921 0.01662583 0.00137172 
0.01604063 0.09670963 0.01071470 0.00372826 0.00215551 0.00258402 0.01301088 0.00835734 0.03172610 0.00255254 0.00294783 0.12542568 0.00855194 0.01063547 0.01678551 0.00137423 
0.01643375 0.09842360 0.01021564 0.00376266 0.00216924 0.00258021 0.01337297 0.00841627 0.03242230 0.00258294 0.00303946 0.12497848 0.00844826 0.01052156 0.01695541 0.00137637 
0.01687818 0.10006296 0.00970620 0.00379794 0.00218275 0.00257704 0.01373791 0.00846845 0.03309461 0.00261430 0.00313155 0.12448211 0.00835671 0.01042753 0.01713419 0.00137815 
0.01737491 0.10162167 0.00918805 0.00383399 0.00219602 0.00257451 0.01410421 0.00851365 0.03373972 0.00264650 0.00322375 0.12393417 0.00827749 0.01035335 0.01732044 0.00137959 
0.01792477 0.10309392 0.00866288 0.00387071 0.00220900 0.00257259 0.01447040 0.00855174 0.03435453 0.00267938 0.00331569 0.12333249 0.00821070 0.01029888 0.01751272 0.00138068 
0.01852846 0.10447421 0.00813245 0.00390799 0.00222169 0.00257126 0.01483502 0.00858259 0.03493620 0.00271280 0.00340701 0.12267521 0.00815639 0.01026387 0.01770955 0.00138146 
0.01918653 0.10575735 0.00759855 0.00394572 0.00223407 0.00257051 0.01519663 0.00860613 0.03548212 0.00274660 0.00349738 0.12196074 0.00811453 0.01024799 0.01790945 0.00138192 
0.01989936 0.10693851 0.00706301 0.00398380 0.00224612 0.00257031 0.01555384 0.00862234 0.03598997 0.00278064 0.00358647 0.12118782 0.00808502 0.01025081 0.01811089 0.00138210 
0.02066716 0.10801321 0.00652770 0.00402209 0.00225785 0.00257062 0.01590525 0.00863124 0.03645771 0.00281477 0.00367394 0.12035554 0.00806772 0.01027180 0.01831234 0.00138200 
0.02148997 0.10897738 0.00599448 0.00406050 0.00226926 0.00257141 0.01624955 0.00863288 0.03688357 0.00284883 0.00375951 0.11946332 0.00806239 0.01031035 0.01851229 0.00138164 
0.02236765 0.10982736 0.00546524 0.00409889 0.00228036 0.00257264 0.01658545 0.00862737 0.03726611 0.00288267 0.00384287 0.11851097 0.00806876 0.01036574 0.01870922 0.00138103 
0.02329985 0.11055993 0.00494188 0.00413715 0.00229115 0.00257427 0.01691171 0.00861486 0.03760417 0.00291615 0.00392374 0.11749868 0.00808649 0.01043720 0.01890162 0.00138021 
0.02428605 0.11117233 0.00442628 0.00417517 0.00230165 0.00257624 0.01722718 0.00859552 0.03789690 0.00294912 0.00400188 0.11642705 0.00811521 0.01052384 0.01908803 0.00137918 
0.02532552 0.11166225 0.00392033 0.00421284 0.00231188 0.00257851 0.01753073 0.00856959 0.03814376 0.00298144 0.00407704 0.11529708 0.00815450 0.01062473 0.01926698 0.00137796 
0.02641733 0.11202787 0.00342590 0.00425003 0.00232183 0.00258103 0.01782134 0.00853732 0.03834451 0.00301295 0.00414898 0.11411018 0.00820388 0.01073884 0.01943710 0.00137656 
0.02756034 0.11226789 0.00294483 0.00428666 0.00233155 0.00258375 0.01809805 0.00849901 0.03849922 0.00304352 0.00421751 0.11286819 0.00826287 0.01086509 0.01959701 0.00137502 
0.02875323 0.11238148 0.00247894 0.00432260 0.00234102 0.00258659 0.01835997 0.00845497 0.03860824 0.00307300 0.00428243 0.11157337 0.00833092 0.01100233 0.01974543 0.00137334 
0.02999445 0.11236831 0.00203000 0.00435777 0.00235027 0.00258951 0.01860629 0.00840555 0.03867223 0.00310128 0.00434359 0.11022843 0.00840751 0.01114936 0.01988112 0.00137154 
0.03128226 0.11222860 0.00159976 0.00439208 0.00235930 0.00259244 0.01883631 0.00835115 0.03869210 0.00312820 0.00440082 0.10883648 0.00849204 0.01130495 0.02000293 0.00136964 
0.03261471 0.11196304 0.00118990 0.00442544 0.00236812 0.00259533 0.01904939 0.00829215 0.03866905 0.00315366 0.00445400 0.10740107 0.00858395 0.01146779 0.02010979 0.00136766 
0.03398965 0.11157285 0.00080205 0.00445777 0.00237673 0.00259810 0.01924498 0.00822898 0.03860450 0.00317752 0.00450301 0.10592616 0.00868264 0.01163658 0.02020069 0.00136560 
0.03540475 0.11105976 0.00043778 0.00448901 0.00238512 0.00260069 0.01942265 0.00816207 0.03850013 0.00319968 0.00454778 0.10441613 0.00878753 0.01180997 0.02027475 0.00136349 
0.03685747 0.11042597 0.00009861 0.00451909 0.00239328 0.00260303 0.01958203 0.00809188 0.03835783 0.00322001 0.00458823 0.10287575 0.00889801 0.01198660 0.02033117 0.00136133 
0.03834510 0.10967419 0.00021404 0.00454797 0.00240120 0.00260507 0.01972287 0.00801887 0.03817967 0.00323841 0.00462431 0.10131019 0.00901351 0.01216509 0.02036925 0.00135915 
0.03986472 0.10880759 0.00049881 0.00457560 0.00240884 0.00260674 0.01984499 0.00794350 0.03796792 0.00325478 0.00465598 0.09972498 0.00913345 0.01234407 0.02038842 0.00135695 
0.04141328 0.10782981 0.00075443 0.00460195 0.00241619 0.00260798 0.01994831 0.00786624 0.03772500 0.00326902 0.00468324 0.09812599 0.00925728 0.01252218 0.02038822 0.00135474 
0.04298754 0.10674494 0.00097972 0.00462700 0.00242320 0.00260872 0.02003286 0.00778757 0.03745344 0.00328104 0.00470610 0.09651946 0.00938446 0.01269806 0.02036829 0.00135254 
0.04458412 0.10555746 0.00117358 0.00465073 0.00242983 0.00260890 0.02009874 0.00770796 0.03715592 0.00329077 0.00472457 0.09491191 0.00951447 0.01287038 0.02032843 0.00135035 
0.04619947 0.10427229 0.00133501 0.00467314 0.00243602 0.00260846 0.02014615 0.00762786 0.03683516 0.00329812 0.00473871 0.09331014 0.00964684 0.01303784 0.02026853 0.00134817 
0.04782993 0.10289471 0.00146312 0.00469425 0.00244172 0.00260736 0.02017538 0.00754774 0.03649399 0.00330303 0.00474857 0.09172124 0.00978109 0.01319919 0.02018865 0.00134603 
0.04947171 0.10143034 0.00155712 0.00471405 0.00244686 0.00260553 0.02018678 0.00746802 0.03613523 0.00330543 0.00475422 0.09015251 0.00991681 0.01335320 0.02008894 0.00134391 
0.05112092 0.09988514 0.00161631 0.00473259 0.00245137 0.00260292 0.02018082 0.00738915 0.03576176 0.00330526 0.00475577 0.08861144 0.01005359 0.01349872 0.01996972 0.00134184 
0.05277355 0.09826538 0.00164013 0.00474989 0.00245516 0.00259950 0.02015802 0.00731153 0.03537640 0.00330247 0.00475331 0.08710571 0.01019108 0.01363466 0.01983142 0.00133980 
0.05442552 0.09657757 0.00162811 0.00476601 0.00245815 0.00259521 0.02011898 0.00723556 0.03498199 0.00329704 0.00474698 0.08564311 0.01032895 0.01375997 0.01967462 0.00133780 
0.05607267 0.09482846 0.00157991 0.00478098 0.00246025 0.00259002 0.02006438 0.00716158 0.03458127 0.00328891 0.00473690 0.08423153 0.01046693 0.01387372 0.01950002 0.00133585 
0.05771080 0.09302500 0.00149528 0.00479486 0.00246137 0.00258389 0.01999495 0.00708996 0.03417692 0.00327807 0.00472322 0.08287894 0.01060474 0.01397502 0.01930846 0.00133394 
0.05933566 0.09117432 0.00137413 0.00480773 0.00246140 0.00257679 0.01991148 0.00702100 0.03377152 0.00326450 0.00470610 0.08159329 0.01074220 0.01406310 0.01910091 0.00133207 
0.06094296 0.08928368 0.00121645 0.00481965 0.00246026 0.00256870 0.01981483 0.00695500 0.03336754 0.00324819 0.00468571 0.08038257 0.01087911 0.01413725 0.01887846 0.00133024 
0.06252841 0.08736041 0.00102237 0.00483070 0.00245783 0.00255960 0.01970589 0.00689222 0.03296730 0.00322913 0.00466224 0.07925466 0.01101533 0.01419689 0.01864234 0.00132844 
0.06408772 0.08541193 0.00079215 0.00484095 0.00245401 0.00254948 0.01958561 0.00683287 0.03257297 0.00320734 0.00463586 0.07821736 0.01115077 0.01424153 0.01839388 0.00132668 
0.06561662 0.08344569 0.00052615 0.00485049 0.00244871 0.00253833 0.01945496 0.00677717 0.03218657 0.00318283 0.00460678 0.07727835 0.01128534 0.01427078 0.01813453 0.00132495 
0.06711088 0.08146910 0.00022486 0.00485940 0.00244182 0.00252614 0.01931495 0.00672526 0.03180991 0.00315563 0.00457521 0.07644511 0.01141899 0.01428436 0.01786586 0.00132324 
0.06856630 0.07948954 0.00011111 0.00486777 0.00243324 0.00251292 0.01916663 0.00667730 0.03144464 0.00312576 0.00454134 0.07572490 0.01155172 0.01428211 0.01758952 0.00132155 
0.06997877 0.07751433 0.00048103 0.00487567 0.00242289 0.00249868 0.01901103 0.00663336 0.03109218 0.00309328 0.00450540 0.07512474 0.01168353 0.01426397 0.01730729 0.00131988 
0.07134423 0.07555063 0.00088404 0.00488319 0.00241068 0.00248345 0.01884923 0.00659352 0.03075377 0.00305824 0.00446760 0.07465132 0.01181446 0.01423002 0.01702099 0.00131820 
0.07265876 0.07360549 0.00131919 0.00489042 0.00239653 0.00246723 0.01868229 0.00655781 0.03043041 0.00302068 0.00442817 0.07431101 0.01194455 0.01418042 0.01673255 0.00131652 
0.07391850 0.07168575 0.00178541 0.00489742 0.00238037 0.00245006 0.01851129 0.00652623 0.03012290 0.00298070 0.00438732 0.07410981 0.01207388 0.01411547 0.01644398 0.00131484 
0.07511974 0.06979805 0.00228150 0.00490426 0.00236214 0.00243199 0.01833728 0.00649875 0.02983183 0.00293836 0.00434529 0.07405329 0.01220252 0.01403557 0.01615731 0.00131313 
0.07625892 0.06794878 0.00280618 0.00491102 0.00234179 0.00241304 0.01816132 0.00647530 0.02955756 0.00289376 0.00430230 0.07414656 0.01233059 0.01394125 0.01587466 0.00131140 
0.07733261 0.06614406 0.00335805 0.00491776 0.00231929 0.00239328 0.01798444 0.00645579 0.02930024 0.00284699 0.00425857 0.07439427 0.01245816 0.01383313 0.01559818 0.00130964 
0.07833754 0.06438969 0.00393561 0.00492451 0.00229461 0.00237276 0.01780763 0.00644010 0.02905983 0.00279816 0.00421433 0.07480055 0.01258537 0.01371195 0.01533003 0.00130784 
